time,data
0,1.845722863e-08
2.083333333e-05,2.660745224e-08
4.166666667e-05,3.443974705e-08
6.25e-05,4.189683622e-08
8.333333333e-05,4.939168008e-08
0.0001041666667,5.717648222e-08
0.000125,6.536436814e-08
0.0001458333333,7.382696765e-08
0.0001666666667,8.219043934e-08
0.0001875,9.04296158e-08
0.0002083333333,9.853115301e-08
0.0002291666667,1.069513758e-07
0.00025,1.158960288e-07
0.0002708333333,1.254544912e-07
0.0002916666667,1.354229937e-07
0.0003125,1.453594649e-07
0.0003333333333,1.551676263e-07
0.0003541666667,1.646976244e-07
0.000375,1.742862139e-07
0.0003958333333,1.839859891e-07
0.0004166666667,1.937997212e-07
0.0004375,2.034908846e-07
0.0004583333333,2.126122638e-07
0.0004791666667,2.210912982e-07
0.0005,2.287624028e-07
0.0005208333333,2.360074376e-07
0.0005416666667,2.429420363e-07
0.0005625,2.497551748e-07
0.0005833333333,2.56352422e-07
0.0006041666667,2.624102535e-07
0.000625,2.678132773e-07
0.0006458333333,2.722794363e-07
0.0006666666667,2.760924929e-07
0.0006875,2.792953353e-07
0.0007083333333,2.821304577e-07
0.0007291666667,2.844487881e-07
0.00075,2.857955224e-07
0.0007708333333,2.858341475e-07
0.0007916666667,2.840361901e-07
0.0008125,2.807359181e-07
0.0008333333333,2.761112228e-07
0.0008541666667,2.707675719e-07
0.000875,2.647606436e-07
0.0008958333333,2.577031353e-07
0.0009166666667,2.492445219e-07
0.0009375,2.388679263e-07
0.0009583333333,2.271268045e-07
0.0009791666667,2.14515893e-07
0.001,2.018284135e-07
0.001020833333,1.89098202e-07
0.001041666667,1.755854555e-07
0.0010625,1.605711901e-07
0.001083333333,1.43305158e-07
0.001104166667,1.243496115e-07
0.001125,1.043382909e-07
0.001145833333,8.41515444e-08
0.001166666667,6.367335459e-08
0.0011875,4.208220616e-08
0.001208333333,1.855162068e-08
0.001229166667,-7.319857609e-09
0.00125,-3.454620057e-08
0.001270833333,-6.203372038e-08
0.001291666667,-8.862009082e-08
0.0013125,-1.144753554e-07
0.001333333333,-1.404712719e-07
0.001354166667,-1.674699348e-07
0.001375,-1.958674574e-07
0.001395833333,-2.245621857e-07
0.001416666667,-2.527266929e-07
0.0014375,-2.794417924e-07
0.001458333333,-3.053344528e-07
0.001479166667,-3.314942489e-07
0.0015,-3.588114339e-07
0.001520833333,-3.875614993e-07
0.001541666667,-4.165327425e-07
0.0015625,-4.447701656e-07
0.001583333333,-4.713129726e-07
0.001604166667,-4.964622917e-07
0.001625,-5.209509482e-07
0.001645833333,-5.452181995e-07
0.001666666667,-5.692930358e-07
0.0016875,-5.91991693e-07
0.001708333333,-6.125738423e-07
0.001729166667,-6.302150268e-07
0.00175,-6.454265531e-07
0.001770833333,-6.588959423e-07
0.001791666667,-6.714564051e-07
0.0018125,-6.835056183e-07
0.001833333333,-6.944657116e-07
0.001854166667,-7.03931164e-07
0.001875,-7.110259617e-07
0.001895833333,-7.159194979e-07
0.001916666667,-7.189619851e-07
0.0019375,-7.20712876e-07
0.001958333333,-7.21708318e-07
0.001979166667,-7.211666002e-07
0.002,-7.184870014e-07
0.002020833333,-7.121433327e-07
0.002041666667,-7.018719543e-07
0.0020625,-6.879885177e-07
0.002083333333,-6.715571885e-07
0.002104166667,-6.538421076e-07
0.002125,-6.347507338e-07
0.002145833333,-6.137406672e-07
0.002166666667,-5.894544302e-07
0.0021875,-5.615106033e-07
0.002208333333,-5.308295385e-07
0.002229166667,-4.989931313e-07
0.00225,-4.676915353e-07
0.002270833333,-4.366614235e-07
0.002291666667,-4.046002005e-07
0.0023125,-3.69280059e-07
0.002333333333,-3.298770821e-07
0.002354166667,-2.87117615e-07
0.002375,-2.430176664e-07
0.002395833333,-1.991267737e-07
0.002416666667,-1.551860009e-07
0.0024375,-1.094960211e-07
0.002458333333,-5.996731289e-08
0.002479166667,-6.329867741e-09
0.0025,4.970934242e-08
0.002520833333,1.053574934e-07
0.002541666667,1.584859604e-07
0.0025625,2.095213176e-07
0.002583333333,2.600914968e-07
0.002604166667,3.125008732e-07
0.002625,3.668422437e-07
0.002645833333,4.216022944e-07
0.002666666667,4.744163675e-07
0.0026875,5.239971301e-07
0.002708333333,5.713987434e-07
0.002729166667,6.188115549e-07
0.00275,6.682820413e-07
0.002770833333,7.199492416e-07
0.002791666667,7.719031601e-07
0.0028125,8.21935032e-07
0.002833333333,8.683780379e-07
0.002854166667,9.118298294e-07
0.002875,9.534460332e-07
0.002895833333,9.945131296e-07
0.002916666667,1.034637648e-06
0.0029375,1.072252076e-06
0.002958333333,1.105483989e-06
0.002979166667,1.133275305e-06
0.003,1.156162057e-06
0.003020833333,1.175628995e-06
0.003041666667,1.193207936e-06
0.0030625,1.209688094e-06
0.003083333333,1.224424295e-06
0.003104166667,1.236461571e-06
0.003125,1.24444523e-06
0.003145833333,1.248405738e-06
0.003166666667,1.248797275e-06
0.0031875,1.247000796e-06
0.003208333333,1.243594397e-06
0.003229166667,1.238070809e-06
0.00325,1.228776227e-06
0.003270833333,1.213464316e-06
0.003291666667,1.191181013e-06
0.0033125,1.162468152e-06
0.003333333333,1.129366751e-06
0.003354166667,1.09417681e-06
0.003375,1.057086138e-06
0.003395833333,1.017287786e-06
0.003416666667,9.721121614e-07
0.0034375,9.210838812e-07
0.003458333333,8.652727956e-07
0.003479166667,8.079136364e-07
0.0035,7.518058283e-07
0.003520833333,6.969110586e-07
0.003541666667,6.408699278e-07
0.0035625,5.798515303e-07
0.003583333333,5.120996889e-07
0.003604166667,4.390060155e-07
0.003625,3.637958912e-07
0.003645833333,2.896269962e-07
0.003666666667,2.158599273e-07
0.0036875,1.399296679e-07
0.003708333333,5.792046309e-08
0.003729166667,-3.04774197e-08
0.00375,-1.226518549e-07
0.003770833333,-2.13518959e-07
0.003791666667,-2.99686775e-07
0.0038125,-3.815195839e-07
0.003833333333,-4.620752065e-07
0.003854166667,-5.451294101e-07
0.003875,-6.31019077e-07
0.003895833333,-7.171346397e-07
0.003916666667,-7.995518558e-07
0.0039375,-8.759095067e-07
0.003958333333,-9.483674148e-07
0.003979166667,-1.020133709e-06
0.004,-1.095400194e-06
0.004020833333,-1.17361003e-06
0.004041666667,-1.25228712e-06
0.0040625,-1.327042924e-06
0.004083333333,-1.395586764e-06
0.004104166667,-1.458770498e-06
0.004125,-1.518698468e-06
0.004145833333,-1.577687158e-06
0.004166666667,-1.634881983e-06
0.0041875,-1.687761255e-06
0.004208333333,-1.73311571e-06
0.004229166667,-1.769123969e-06
0.00425,-1.797259415e-06
0.004270833333,-1.819474505e-06
0.004291666667,-1.839372544e-06
0.0043125,-1.857006851e-06
0.004333333333,-1.87237822e-06
0.004354166667,-1.88266597e-06
0.004375,-1.88655531e-06
0.004395833333,-1.883864229e-06
0.004416666667,-1.875622615e-06
0.0044375,-1.864613182e-06
0.004458333333,-1.851031243e-06
0.004479166667,-1.834554951e-06
0.0045,-1.811758352e-06
0.004520833333,-1.779229024e-06
0.004541666667,-1.736063041e-06
0.0045625,-1.682529614e-06
0.004583333333,-1.62359288e-06
0.004604166667,-1.561023055e-06
0.004625,-1.496792152e-06
0.004645833333,-1.42761985e-06
0.004666666667,-1.350541538e-06
0.0046875,-1.264403295e-06
0.004708333333,-1.171219537e-06
0.004729166667,-1.076979629e-06
0.00475,-9.849612752e-07
0.004770833333,-8.95970345e-07
0.004791666667,-8.050761835e-07
0.0048125,-7.066208809e-07
0.004833333333,-5.984068139e-07
0.004854166667,-4.818771799e-07
0.004875,-3.640803925e-07
0.004895833333,-2.476516556e-07
0.004916666667,-1.337206044e-07
0.0049375,-1.5816358e-08
0.004958333333,1.104835761e-07
0.004979166667,2.464705915e-07
0.005,3.876106973e-07
0.005020833333,5.252672963e-07
0.005041666667,6.554084848e-07
0.0050625,7.7738855e-07
0.005083333333,8.974819821e-07
0.005104166667,1.020704076e-06
0.005125,1.147590297e-06
0.005145833333,1.274757437e-06
0.005166666667,1.394394189e-06
0.0051875,1.505352998e-06
0.005208333333,1.608226967e-06
0.005229166667,1.710907782e-06
0.00525,1.817339466e-06
0.005270833333,1.928398433e-06
0.005291666667,2.039442734e-06
0.0053125,2.143626716e-06
0.005333333333,2.238552952e-06
0.005354166667,2.323924718e-06
0.005375,2.404797897e-06
0.005395833333,2.48308379e-06
0.005416666667,2.558497954e-06
0.0054375,2.627366257e-06
0.005458333333,2.683752427e-06
0.005479166667,2.727344508e-06
0.0055,2.757022912e-06
0.005520833333,2.779453098e-06
0.005541666667,2.796244644e-06
0.0055625,2.810700153e-06
0.005583333333,2.821032695e-06
0.005604166667,2.823795739e-06
0.005625,2.817988388e-06
0.005645833333,2.801149549e-06
0.005666666667,2.777374448e-06
0.0056875,2.747927056e-06
0.005708333333,2.715260962e-06
0.005729166667,2.678410738e-06
0.00575,2.631769348e-06
0.005770833333,2.572951416e-06
0.005791666667,2.496615025e-06
0.0058125,2.407598231e-06
0.005833333333,2.308250032e-06
0.005854166667,2.205360033e-06
0.005875,2.099339554e-06
0.005895833333,1.986873713e-06
0.005916666667,1.864442766e-06
0.0059375,1.728086318e-06
0.005958333333,1.583541007e-06
0.005979166667,1.435933541e-06
0.006,1.292872071e-06
0.006020833333,1.154275424e-06
0.006041666667,1.013188353e-06
0.0060625,8.637244377e-07
0.006083333333,6.986924745e-07
0.006104166667,5.250187201e-07
0.006125,3.469489513e-07
0.006145833333,1.735315038e-07
0.006166666667,2.646238784e-09
0.0061875,-1.724548753e-07
0.006208333333,-3.579878012e-07
0.006229166667,-5.577037427e-07
0.00625,-7.621424061e-07
0.006270833333,-9.630465456e-07
0.006291666667,-1.151210654e-06
0.0063125,-1.327930704e-06
0.006333333333,-1.501263569e-06
0.006354166667,-1.676735224e-06
0.006375,-1.858521728e-06
0.006395833333,-2.037007789e-06
0.006416666667,-2.207255193e-06
0.0064375,-2.361739007e-06
0.006458333333,-2.506549663e-06
0.006479166667,-2.648940608e-06
0.0065,-2.796051149e-06
0.006520833333,-2.949598183e-06
0.006541666667,-3.100477898e-06
0.0065625,-3.243248557e-06
0.006583333333,-3.370043032e-06
0.006604166667,-3.484603894e-06
0.006625,-3.591505674e-06
0.006645833333,-3.693515737e-06
0.006666666667,-3.792647931e-06
0.0066875,-3.878735697e-06
0.006708333333,-3.950284281e-06
0.006729166667,-3.999518412e-06
0.00675,-4.032111065e-06
0.006770833333,-4.052000349e-06
0.006791666667,-4.06463414e-06
0.0068125,-4.07403104e-06
0.006833333333,-4.075442121e-06
0.006854166667,-4.068113412e-06
0.006875,-4.04552793e-06
0.006895833333,-4.009641543e-06
0.006916666667,-3.962486062e-06
0.0069375,-3.907643077e-06
0.006958333333,-3.849618679e-06
0.006979166667,-3.782672138e-06
0.007,-3.705569497e-06
0.007020833333,-3.60661079e-06
0.007041666667,-3.487372396e-06
0.0070625,-3.347278835e-06
0.007083333333,-3.195183353e-06
0.007104166667,-3.03833599e-06
0.007125,-2.875834753e-06
0.007145833333,-2.706986606e-06
0.007166666667,-2.520686394e-06
0.0071875,-2.31831541e-06
0.007208333333,-2.102563258e-06
0.007229166667,-1.884083872e-06
0.00725,-1.673511633e-06
0.007270833333,-1.466771778e-06
0.007291666667,-1.260857402e-06
0.0073125,-1.038289724e-06
0.007333333333,-7.993154441e-07
0.007354166667,-5.446775617e-07
0.007375,-2.875502787e-07
0.007395833333,-3.693458694e-08
0.007416666667,2.104698495e-07
0.0074375,4.606187929e-07
0.007458333333,7.284788239e-07
0.007479166667,1.011931431e-06
0.0075,1.30430692e-06
0.007520833333,1.589452154e-06
0.007541666667,1.855770165e-06
0.0075625,2.107715545e-06
0.007583333333,2.350460591e-06
0.007604166667,2.600769449e-06
0.007625,2.854121476e-06
0.007645833333,3.107437124e-06
0.007666666667,3.345129016e-06
0.0076875,3.562374104e-06
0.007708333333,3.765319661e-06
0.007729166667,3.962359187e-06
0.00775,4.16831881e-06
0.007770833333,4.378732228e-06
0.007791666667,4.588886441e-06
0.0078125,4.78463835e-06
0.007833333333,4.959042144e-06
0.007854166667,5.116867669e-06
0.007875,5.260182661e-06
0.007895833333,5.40119936e-06
0.007916666667,5.531788702e-06
0.0079375,5.650765161e-06
0.007958333333,5.744646387e-06
0.007979166667,5.811361007e-06
0.008,5.853873063e-06
0.008020833333,5.877033345e-06
0.008041666667,5.892942227e-06
0.0080625,5.899603366e-06
0.008083333333,5.89993806e-06
0.008104166667,5.884884558e-06
0.008125,5.851130027e-06
0.008145833333,5.799357496e-06
0.008166666667,5.72900899e-06
0.0081875,5.65226037e-06
0.008208333333,5.56452369e-06
0.008229166667,5.471457371e-06
0.00825,5.358906947e-06
0.008270833333,5.222213531e-06
0.008291666667,5.055981546e-06
0.0083125,4.861440175e-06
0.008333333333,4.652822099e-06
0.008354166667,4.432941296e-06
0.008375,4.210773568e-06
0.008395833333,3.975652362e-06
0.008416666667,3.721367193e-06
0.0084375,3.445036555e-06
0.008458333333,3.148926226e-06
0.008479166667,2.853089654e-06
0.0085,2.560519533e-06
0.008520833333,2.280439958e-06
0.008541666667,1.994533704e-06
0.0085625,1.693309741e-06
0.008583333333,1.367441087e-06
0.008604166667,1.021750336e-06
0.008625,6.743493373e-07
0.008645833333,3.307877989e-07
0.008666666667,-3.195947729e-09
0.0086875,-3.457944615e-07
0.008708333333,-7.064140277e-07
0.008729166667,-1.08880954e-06
0.00875,-1.48327149e-06
0.008770833333,-1.864875117e-06
0.008791666667,-2.228425956e-06
0.0088125,-2.565670002e-06
0.008833333333,-2.898797902e-06
0.008854166667,-3.233890538e-06
0.008875,-3.577449888e-06
0.008895833333,-3.918241418e-06
0.008916666667,-4.237869689e-06
0.0089375,-4.534738764e-06
0.008958333333,-4.807591267e-06
0.008979166667,-5.078850336e-06
0.009,-5.35569734e-06
0.009020833333,-5.641198641e-06
0.009041666667,-5.925226105e-06
0.0090625,-6.187557119e-06
0.009083333333,-6.427783319e-06
0.009104166667,-6.63874971e-06
0.009125,-6.839595699e-06
0.009145833333,-7.02915122e-06
0.009166666667,-7.211262982e-06
0.0091875,-7.37424034e-06
0.009208333333,-7.504857422e-06
0.009229166667,-7.602589449e-06
0.00925,-7.664278201e-06
0.009270833333,-7.707280929e-06
0.009291666667,-7.735156032e-06
0.0093125,-7.755762454e-06
0.009333333333,-7.765459486e-06
0.009354166667,-7.753762475e-06
0.009375,-7.721298061e-06
0.009395833333,-7.658425602e-06
0.009416666667,-7.580663805e-06
0.0094375,-7.485811238e-06
0.009458333333,-7.385520803e-06
0.009479166667,-7.272022231e-06
0.0095,-7.135390206e-06
0.009520833333,-6.967784429e-06
0.009541666667,-6.757562005e-06
0.0095625,-6.517966085e-06
0.009583333333,-6.253741958e-06
0.009604166667,-5.982300991e-06
0.009625,-5.703749139e-06
0.009645833333,-5.408436209e-06
0.009666666667,-5.090651939e-06
0.0096875,-4.737304607e-06
0.009708333333,-4.367962447e-06
0.009729166667,-3.989545803e-06
0.00975,-3.625537374e-06
0.009770833333,-3.269928584e-06
0.009791666667,-2.910184094e-06
0.0098125,-2.529117637e-06
0.009833333333,-2.112656603e-06
0.009854166667,-1.67696885e-06
0.009875,-1.232478553e-06
0.009895833333,-8.011427326e-07
0.009916666667,-3.765572103e-07
0.0099375,5.709690498e-08
0.009958333333,5.135190122e-07
0.009979166667,1.003820444e-06
0.01,1.508651167e-06
0.01002083333,2.011734068e-06
0.01004166667,2.471015705e-06
0.0100625,2.895569651e-06
0.01008333333,3.304658776e-06
0.01010416667,3.72140903e-06
0.010125,4.157299372e-06
0.01014583333,4.594517122e-06
0.01016666667,5.014813723e-06
0.0101875,5.397201676e-06
0.01020833333,5.750634955e-06
0.01022916667,6.093521733e-06
0.01025,6.442444828e-06
0.01027083333,6.808802937e-06
0.01029166667,7.172454843e-06
0.0103125,7.524222838e-06
0.01033333333,7.838860256e-06
0.01035416667,8.125288332e-06
0.010375,8.384231478e-06
0.01039583333,8.628348951e-06
0.01041666667,8.858354704e-06
0.0104375,9.061138371e-06
0.01045833333,9.236465303e-06
0.01047916667,9.371034139e-06
0.0105,9.474440049e-06
0.01052083333,9.552051779e-06
0.01054166667,9.610399502e-06
0.0105625,9.655557733e-06
0.01058333333,9.675954971e-06
0.01060416667,9.675153706e-06
0.010625,9.639899872e-06
0.01064583333,9.584028703e-06
0.01066666667,9.503628462e-06
0.0106875,9.412414329e-06
0.01070833333,9.308261724e-06
0.01072916667,9.184359442e-06
0.01075,9.033006791e-06
0.01077083333,8.834892469e-06
0.01079166667,8.597181477e-06
0.0108125,8.319699191e-06
0.01083333333,8.021961548e-06
0.01085416667,7.717062545e-06
0.010875,7.397698027e-06
0.01089583333,7.062501481e-06
0.01091666667,6.680287242e-06
0.0109375,6.264514468e-06
0.01095833333,5.814481483e-06
0.01097916667,5.368831353e-06
0.011,4.940688541e-06
0.01102083333,4.52910308e-06
0.01104166667,4.121238362e-06
0.0110625,3.675957487e-06
0.01108333333,3.192407803e-06
0.01110416667,2.671104312e-06
0.011125,2.141744289e-06
0.01114583333,1.627452662e-06
0.01116666667,1.123995844e-06
0.0111875,6.232438636e-07
0.01120833333,8.423733533e-08
0.01122916667,-4.850308528e-07
0.01125,-1.08222207e-06
0.01127083333,-1.667069569e-06
0.01129166667,-2.22067797e-06
0.0113125,-2.738335979e-06
0.01133333333,-3.234182486e-06
0.01135416667,-3.736577582e-06
0.011375,-4.243954663e-06
0.01139583333,-4.753157555e-06
0.01141666667,-5.240122846e-06
0.0114375,-5.695004802e-06
0.01145833333,-6.127688266e-06
0.01147916667,-6.545708402e-06
0.0115,-6.978792044e-06
0.01152083333,-7.41015765e-06
0.01154166667,-7.841411389e-06
0.0115625,-8.241738215e-06
0.01158333333,-8.608760254e-06
0.01160416667,-8.948317372e-06
0.011625,-9.264107575e-06
0.01164583333,-9.573409443e-06
0.01166666667,-9.863385458e-06
0.0116875,-1.012500888e-05
0.01170833333,-1.034039542e-05
0.01172916667,-1.050405535e-05
0.01175,-1.062546107e-05
0.01177083333,-1.071286715e-05
0.01179166667,-1.079106005e-05
0.0118125,-1.084875839e-05
0.01183333333,-1.089845318e-05
0.01185416667,-1.091609465e-05
0.011875,-1.089927628e-05
0.01189583333,-1.085014264e-05
0.01191666667,-1.076629906e-05
0.0119375,-1.066765799e-05
0.01195833333,-1.055366465e-05
0.01197916667,-1.042507029e-05
0.012,-1.026833888e-05
0.01202083333,-1.006206458e-05
0.01204166667,-9.805517948e-06
0.0120625,-9.494705409e-06
0.01208333333,-9.1596321e-06
0.01210416667,-8.799331226e-06
0.012125,-8.434047231e-06
0.01214583333,-8.051658369e-06
0.01216666667,-7.641504453e-06
0.0121875,-7.190877113e-06
0.01220833333,-6.710959497e-06
0.01222916667,-6.222274806e-06
0.01225,-5.741605946e-06
0.01227083333,-5.271566351e-06
0.01229166667,-4.791576885e-06
0.0123125,-4.283677299e-06
0.01233333333,-3.742779199e-06
0.01235416667,-3.164988129e-06
0.012375,-2.585026323e-06
0.01239583333,-2.009226819e-06
0.01241666667,-1.445625003e-06
0.0124375,-8.624788848e-07
0.01245833333,-2.537113062e-07
0.01247916667,3.893973144e-07
0.0125,1.045161412e-06
0.01252083333,1.681542585e-06
0.01254166667,2.284652055e-06
0.0125625,2.859563438e-06
0.01258333333,3.425225032e-06
0.01260416667,3.999653018e-06
0.012625,4.582178462e-06
0.01264583333,5.153869097e-06
0.01266666667,5.685943961e-06
0.0126875,6.18314516e-06
0.01270833333,6.647217106e-06
0.01272916667,7.11478333e-06
0.01275,7.591441772e-06
0.01277083333,8.088492905e-06
0.01279166667,8.566552424e-06
0.0128125,9.012281225e-06
0.01283333333,9.41552571e-06
0.01285416667,9.777580999e-06
0.012875,1.012586199e-05
0.01289583333,1.046252055e-05
0.01291666667,1.07801925e-05
0.0129375,1.106377567e-05
0.01295833333,1.1294057e-05
0.01297916667,1.14719287e-05
0.013,1.159721887e-05
0.01302083333,1.170269297e-05
0.01304166667,1.178044386e-05
0.0130625,1.184722987e-05
0.01308333333,1.188315218e-05
0.01310416667,1.187979433e-05
0.013125,1.184502253e-05
0.01314583333,1.177573631e-05
0.01316666667,1.168584731e-05
0.0131875,1.158272335e-05
0.01320833333,1.146135855e-05
0.01322916667,1.130783767e-05
0.01325,1.111556867e-05
0.01327083333,1.086598058e-05
0.01329166667,1.055880784e-05
0.0133125,1.023268851e-05
0.01333333333,9.869562746e-06
0.01335416667,9.496959137e-06
0.013375,9.099574527e-06
0.01339583333,8.656522368e-06
0.01341666667,8.169093235e-06
0.0134375,7.632481356e-06
0.01345833333,7.078089766e-06
0.01347916667,6.546705663e-06
0.0135,6.041368579e-06
0.01352083333,5.556345059e-06
0.01354166667,5.049505944e-06
0.0135625,4.497718692e-06
0.01358333333,3.877010386e-06
0.01360416667,3.224949296e-06
0.013625,2.567457159e-06
0.01364583333,1.947402325e-06
0.01366666667,1.351232527e-06
0.0136875,7.531705251e-07
0.01370833333,1.111997534e-07
0.01372916667,-5.84703173e-07
0.01375,-1.317276428e-06
0.01377083333,-2.050254579e-06
0.01379166667,-2.729224661e-06
0.0138125,-3.355008857e-06
0.01383333333,-3.935544555e-06
0.01385416667,-4.501839157e-06
0.013875,-5.094315839e-06
0.01389583333,-5.682029041e-06
0.01391666667,-6.270314316e-06
0.0139375,-6.830139228e-06
0.01395833333,-7.360263226e-06
0.01397916667,-7.869159163e-06
0.014,-8.361042092e-06
0.01402083333,-8.83237044e-06
0.01404166667,-9.281398889e-06
0.0140625,-9.709790902e-06
0.01408333333,-1.011509448e-05
0.01410416667,-1.051303025e-05
0.014125,-1.091758259e-05
0.01414583333,-1.130567671e-05
0.01416666667,-1.164867626e-05
0.0141875,-1.191230695e-05
0.01420833333,-1.208505182e-05
0.01422916667,-1.218401849e-05
0.01425,-1.22688607e-05
0.01427083333,-1.235098898e-05
0.01429166667,-1.245924796e-05
0.0143125,-1.255945426e-05
0.01433333333,-1.259199871e-05
0.01435416667,-1.253289611e-05
0.014375,-1.237922152e-05
0.01439583333,-1.219111255e-05
0.01441666667,-1.202820567e-05
0.0144375,-1.190359308e-05
0.01445833333,-1.183195309e-05
0.01447916667,-1.17280124e-05
0.0145,-1.154705842e-05
0.01452083333,-1.122593676e-05
0.01454166667,-1.078502282e-05
0.0145625,-1.027654071e-05
0.01458333333,-9.775424587e-06
0.01460416667,-9.320320714e-06
0.014625,-8.919208994e-06
0.01464583333,-8.508968676e-06
0.01466666667,-8.04073261e-06
0.0146875,-7.467197065e-06
0.01470833333,-6.80811263e-06
0.01472916667,-6.12151689e-06
0.01475,-5.472527846e-06
0.01477083333,-4.88882597e-06
0.01479166667,-4.354598332e-06
0.0148125,-3.8148155e-06
0.01483333333,-3.211284593e-06
0.01485416667,-2.502954658e-06
0.014875,-1.714808832e-06
0.01489583333,-9.251405118e-07
0.01491666667,-1.677596941e-07
0.0149375,5.226625603e-07
0.01495833333,1.15426144e-06
0.01497916667,1.779578497e-06
0.015,2.426516858e-06
0.01502083333,3.135334055e-06
0.01504166667,3.891004326e-06
0.0150625,4.669320788e-06
0.01508333333,5.444107046e-06
0.01510416667,6.188407497e-06
0.015125,6.84898805e-06
0.01514583333,7.436132819e-06
0.01516666667,7.941067452e-06
0.0151875,8.419494407e-06
0.01520833333,8.897701264e-06
0.01522916667,9.415231034e-06
0.01525,9.965640857e-06
0.01527083333,1.052809603e-05
0.01529166667,1.104723287e-05
0.0153125,1.148578303e-05
0.01533333333,1.18549915e-05
0.01535416667,1.219904698e-05
0.015375,1.25299066e-05
0.01539583333,1.292246907e-05
0.01541666667,1.331197109e-05
0.0154375,1.364941454e-05
0.01545833333,1.386884105e-05
0.01547916667,1.395078561e-05
0.0155,1.392012291e-05
0.01552083333,1.383743347e-05
0.01554166667,1.378346769e-05
0.0155625,1.37740335e-05
0.01558333333,1.379851801e-05
0.01560416667,1.380376671e-05
0.015625,1.372568477e-05
0.01564583333,1.357707151e-05
0.01566666667,1.335406159e-05
0.0156875,1.310289917e-05
0.01570833333,1.28486563e-05
0.01572916667,1.260447607e-05
0.01575,1.230647558e-05
0.01577083333,1.193482876e-05
0.01579166667,1.147305466e-05
0.0158125,1.092911316e-05
0.01583333333,1.037964194e-05
0.01585416667,9.837855032e-06
0.015875,9.325199244e-06
0.01589583333,8.807896847e-06
0.01591666667,8.219652045e-06
0.0159375,7.568174624e-06
0.01595833333,6.825395758e-06
0.01597916667,6.08893788e-06
0.016,5.374097327e-06
0.01602083333,4.719591288e-06
0.01604166667,4.074310709e-06
0.0160625,3.412774504e-06
0.01608333333,2.667497256e-06
0.01610416667,1.832370913e-06
0.016125,9.890542287e-07
0.01614583333,1.689517433e-07
0.01616666667,-5.682712754e-07
0.0161875,-1.269723384e-06
0.01620833333,-1.96849237e-06
0.01622916667,-2.707784915e-06
0.01625,-3.536934628e-06
0.01627083333,-4.407067536e-06
0.01629166667,-5.304022125e-06
0.0163125,-6.138971457e-06
0.01633333333,-6.903798749e-06
0.01635416667,-7.577204087e-06
0.016375,-8.188942957e-06
0.01639583333,-8.775220522e-06
0.01641666667,-9.336406947e-06
0.0164375,-9.921162928e-06
0.01645833333,-1.051789968e-05
0.01647916667,-1.116314797e-05
0.0165,-1.176358819e-05
0.01652083333,-1.229989539e-05
0.01654166667,-1.276233615e-05
0.0165625,-1.313828761e-05
0.01658333333,-1.352235904e-05
0.01660416667,-1.388007149e-05
0.016625,-1.432294903e-05
0.01664583333,-1.474696091e-05
0.01666666667,-1.51262102e-05
0.0166875,-1.53791043e-05
0.01670833333,-1.547075044e-05
0.01672916667,-1.547002284e-05
0.01675,-1.540212179e-05
0.01677083333,-1.536183663e-05
0.01679166667,-1.539208642e-05
0.0168125,-1.545250052e-05
0.01683333333,-1.546486237e-05
0.01685416667,-1.537338721e-05
0.016875,-1.514133055e-05
0.01689583333,-1.478492595e-05
0.01691666667,-1.441487711e-05
0.0169375,-1.407123546e-05
0.01695833333,-1.383384006e-05
0.01697916667,-1.363229057e-05
0.017,-1.341345251e-05
0.01702083333,-1.304598209e-05
0.01704166667,-1.249784418e-05
0.0170625,-1.181699918e-05
0.01708333333,-1.104607509e-05
0.01710416667,-1.032434648e-05
0.017125,-9.671721273e-06
0.01714583333,-9.079526535e-06
0.01716666667,-8.480531505e-06
0.0171875,-7.772928257e-06
0.01720833333,-6.980279522e-06
0.01722916667,-6.102424777e-06
0.01725,-5.245859484e-06
0.01727083333,-4.441891633e-06
0.01729166667,-3.713577826e-06
0.0173125,-3.014272806e-06
0.01733333333,-2.285443315e-06
0.01735416667,-1.484910058e-06
0.017375,-5.883117069e-07
0.01739583333,3.682274041e-07
0.01741666667,1.368447101e-06
0.0174375,2.371637947e-06
0.01745833333,3.313010438e-06
0.01747916667,4.199968316e-06
0.0175,5.010385848e-06
0.01752083333,5.728686574e-06
0.01754166667,6.463073532e-06
0.0175625,7.25946893e-06
0.01758333333,8.121894098e-06
0.01760416667,9.030797628e-06
0.017625,9.944520571e-06
0.01764583333,1.071829138e-05
0.01766666667,1.136368246e-05
0.0176875,1.190858711e-05
0.01770833333,1.243825409e-05
0.01772916667,1.301419343e-05
0.01775,1.365825756e-05
0.01777083333,1.433004945e-05
0.01779166667,1.490211434e-05
0.0178125,1.541141683e-05
0.01783333333,1.577974763e-05
0.01785416667,1.613241329e-05
0.017875,1.645766133e-05
0.01789583333,1.682702714e-05
0.01791666667,1.720307228e-05
0.0179375,1.752836397e-05
0.01795833333,1.779543345e-05
0.01797916667,1.794423952e-05
0.018,1.79841918e-05
0.01802083333,1.792616422e-05
0.01804166667,1.776679346e-05
0.0180625,1.763227738e-05
0.01808333333,1.743516623e-05
0.01810416667,1.727646304e-05
0.018125,1.709175922e-05
0.01814583333,1.691110629e-05
0.01816666667,1.672074359e-05
0.0181875,1.645336852e-05
0.01820833333,1.612903907e-05
0.01822916667,1.573542249e-05
0.01825,1.528358916e-05
0.01827083333,1.473033444e-05
0.01829166667,1.415371207e-05
0.0183125,1.35014061e-05
0.01833333333,1.284850259e-05
0.01835416667,1.222557967e-05
0.018375,1.151327524e-05
0.01839583333,1.079265803e-05
0.01841666667,9.970939573e-06
0.0184375,9.059550393e-06
0.01845833333,8.133008123e-06
0.01847916667,7.238207218e-06
0.0185,6.474665497e-06
0.01852083333,5.739744211e-06
0.01854166667,5.022021924e-06
0.0185625,4.142769285e-06
0.01858333333,3.188388291e-06
0.01860416667,2.123748118e-06
0.018625,1.020969648e-06
0.01864583333,5.350636911e-08
0.01866666667,-8.449818552e-07
0.0186875,-1.653710342e-06
0.01870833333,-2.514835387e-06
0.01872916667,-3.43235115e-06
0.01875,-4.465633992e-06
0.01877083333,-5.519126262e-06
0.01879166667,-6.542405572e-06
0.0188125,-7.540405932e-06
0.01883333333,-8.367785995e-06
0.01885416667,-9.17853049e-06
0.018875,-9.914087059e-06
0.01889583333,-1.062997399e-05
0.01891666667,-1.138760308e-05
0.0189375,-1.211735889e-05
0.01895833333,-1.290060391e-05
0.01897916667,-1.365374192e-05
0.019,-1.436346065e-05
0.01902083333,-1.493992022e-05
0.01904166667,-1.545316991e-05
0.0190625,-1.589626845e-05
0.01908333333,-1.631890882e-05
0.01910416667,-1.680904097e-05
0.019125,-1.734131729e-05
0.01914583333,-1.787419751e-05
0.01916666667,-1.828270615e-05
0.0191875,-1.85489298e-05
0.01920833333,-1.866015009e-05
0.01922916667,-1.861498458e-05
0.01925,-1.864977457e-05
0.01927083333,-1.8711964e-05
0.01929166667,-1.885148231e-05
0.0193125,-1.900058487e-05
0.01933333333,-1.899569543e-05
0.01935416667,-1.879816409e-05
0.019375,-1.841692028e-05
0.01939583333,-1.794550917e-05
0.01941666667,-1.750735646e-05
0.0194375,-1.72178643e-05
0.01945833333,-1.706387411e-05
0.01947916667,-1.694078128e-05
0.0195,-1.671506652e-05
0.01952083333,-1.623357275e-05
0.01954166667,-1.555225572e-05
0.0195625,-1.467223319e-05
0.01958333333,-1.381177481e-05
0.01960416667,-1.303573663e-05
0.019625,-1.240524398e-05
0.01964583333,-1.184900702e-05
0.01966666667,-1.119973058e-05
0.0196875,-1.045421595e-05
0.01970833333,-9.460266483e-06
0.01972916667,-8.371061085e-06
0.01975,-7.31766886e-06
0.01977083333,-6.357831808e-06
0.01979166667,-5.675392458e-06
0.0198125,-5.043182682e-06
0.01983333333,-4.380966857e-06
0.01985416667,-3.525987495e-06
0.019875,-2.381913873e-06
0.01989583333,-1.0193977e-06
0.01991666667,3.538349347e-07
0.0199375,1.577508328e-06
0.01995833333,2.540818514e-06
0.01997916667,3.158855179e-06
0.02,3.810656608e-06
0.02002083333,4.533054835e-06
0.02004166667,5.45883313e-06
0.0200625,6.577577551e-06
0.02008333333,7.788883522e-06
0.02010416667,8.887021977e-06
0.020125,9.735284038e-06
0.02014583333,1.03882021e-05
0.02016666667,1.086151042e-05
0.0201875,1.147069452e-05
0.02020833333,1.230774524e-05
0.02022916667,1.326013353e-05
0.02025,1.429222175e-05
0.02027083333,1.508885998e-05
0.02029166667,1.560269084e-05
0.0203125,1.589402382e-05
0.02033333333,1.610035906e-05
0.02035416667,1.6467553e-05
0.020375,1.702761438e-05
0.02039583333,1.777432954e-05
0.02041666667,1.843241444e-05
0.0204375,1.898013397e-05
0.02045833333,1.925847755e-05
0.02047916667,1.927285848e-05
0.0205,1.916863948e-05
0.02052083333,1.903202428e-05
0.02054166667,1.899057315e-05
0.0205625,1.89843704e-05
0.02058333333,1.903360317e-05
0.02060416667,1.895374589e-05
0.020625,1.880435229e-05
0.02064583333,1.847530621e-05
0.02066666667,1.799869824e-05
0.0206875,1.761251042e-05
0.02070833333,1.723452806e-05
0.02072916667,1.699398854e-05
0.02075,1.677270848e-05
0.02077083333,1.639901893e-05
0.02079166667,1.587451152e-05
0.0208125,1.521249851e-05
0.02083333333,1.453780715e-05
0.02085416667,1.393044204e-05
0.020875,1.344623706e-05
0.02089583333,1.295711536e-05
0.02091666667,1.242674443e-05
0.0209375,1.177665945e-05
0.02095833333,1.101165344e-05
0.02097916667,1.009842435e-05
0.021,9.096460417e-06
0.02102083333,8.06495882e-06
0.02104166667,6.978716101e-06
0.0210625,5.986913948e-06
0.02108333333,4.932413049e-06
0.02110416667,3.881892553e-06
0.021125,2.867840976e-06
0.02114583333,1.70552596e-06
0.02116666667,5.100995395e-07
0.0211875,-8.36448919e-07
0.02120833333,-2.002836709e-06
0.02122916667,-2.96639746e-06
0.02125,-3.68738165e-06
0.02127083333,-4.230600098e-06
0.02129166667,-4.80014296e-06
0.0213125,-5.494447123e-06
0.02133333333,-6.299294455e-06
0.02135416667,-7.117303539e-06
0.021375,-7.873689356e-06
0.02139583333,-8.567127225e-06
0.02141666667,-9.303205843e-06
0.0214375,-1.000890825e-05
0.02145833333,-1.072907799e-05
0.02147916667,-1.150558273e-05
0.0215,-1.221309594e-05
0.02152083333,-1.297737708e-05
0.02154166667,-1.378722845e-05
0.0215625,-1.465892819e-05
0.02158333333,-1.552987851e-05
0.02160416667,-1.627995152e-05
0.021625,-1.681728463e-05
0.02164583333,-1.713895472e-05
0.02166666667,-1.74488996e-05
0.0216875,-1.771359348e-05
0.02170833333,-1.806439104e-05
0.02172916667,-1.835313924e-05
0.02175,-1.851816887e-05
0.02177083333,-1.850418994e-05
0.02179166667,-1.823066486e-05
0.0218125,-1.783657717e-05
0.02183333333,-1.742290078e-05
0.02185416667,-1.698154301e-05
0.021875,-1.671470636e-05
0.02189583333,-1.66014961e-05
0.02191666667,-1.672353756e-05
0.0219375,-1.711450568e-05
0.02195833333,-1.734996295e-05
0.02197916667,-1.7357248e-05
0.022,-1.697806329e-05
0.02202083333,-1.615254769e-05
0.02204166667,-1.521532249e-05
0.0220625,-1.447593058e-05
0.02208333333,-1.392687682e-05
0.02210416667,-1.365847311e-05
0.022125,-1.342092582e-05
0.02214583333,-1.282379071e-05
0.02216666667,-1.206426441e-05
0.0221875,-1.090499518e-05
0.02220833333,-9.525541827e-06
0.02222916667,-8.074932339e-06
0.02225,-6.672806194e-06
0.02227083333,-5.90659738e-06
0.02229166667,-5.777834758e-06
0.0223125,-6.113477866e-06
0.02233333333,-6.351968295e-06
0.02235416667,-5.958098427e-06
0.022375,-4.573301339e-06
0.02239583333,-2.387273071e-06
0.02241666667,-2.368583978e-07
0.0224375,1.148001274e-06
0.02245833333,1.442555003e-06
0.02247916667,1.022207812e-06
0.0225,7.179436352e-07
0.02252083333,1.162889248e-06
0.02254166667,2.396982154e-06
0.0225625,4.059839739e-06
0.02258333333,5.741215318e-06
0.02260416667,7.108756563e-06
0.022625,8.143333616e-06
0.02264583333,8.983177395e-06
0.02266666667,9.651575965e-06
0.0226875,1.004626847e-05
0.02270833333,1.012165831e-05
0.02272916667,1.015639918e-05
0.02275,1.06238258e-05
0.02277083333,1.172874727e-05
0.02279166667,1.322704247e-05
0.0228125,1.445281487e-05
0.02283333333,1.505301134e-05
0.02285416667,1.467794573e-05
0.022875,1.382461778e-05
0.02289583333,1.336057721e-05
0.02291666667,1.355793393e-05
0.0229375,1.441738004e-05
0.02295833333,1.555436029e-05
0.02297916667,1.63169916e-05
0.023,1.665384661e-05
0.02302083333,1.667377364e-05
0.02304166667,1.656734639e-05
0.0230625,1.648761645e-05
0.02308333333,1.628905193e-05
0.02310416667,1.57746199e-05
0.023125,1.524394884e-05
0.02314583333,1.479355524e-05
0.02316666667,1.46154789e-05
0.0231875,1.454495123e-05
0.02320833333,1.457838425e-05
0.02322916667,1.41610808e-05
0.02325,1.3441786e-05
0.02327083333,1.257159056e-05
0.02329166667,1.182840151e-05
0.0233125,1.134329978e-05
0.02333333333,1.108686411e-05
0.02335416667,1.10838655e-05
0.023375,1.117717602e-05
0.02339583333,1.133796923e-05
0.02341666667,1.142455494e-05
0.0234375,1.127625455e-05
0.02345833333,1.070280086e-05
0.02347916667,9.580085134e-06
0.0235,8.202682693e-06
0.02352083333,6.747439784e-06
0.02354166667,5.516858437e-06
0.0235625,4.459841875e-06
0.02358333333,3.434996415e-06
0.02360416667,2.292692216e-06
0.023625,1.136038009e-06
0.02364583333,4.469484338e-09
0.02366666667,-9.825416782e-07
0.0236875,-1.772638257e-06
0.02370833333,-2.898515049e-06
0.02372916667,-4.080283361e-06
0.02375,-5.092912488e-06
0.02377083333,-5.640405107e-06
0.02379166667,-5.655537279e-06
0.0238125,-5.28210694e-06
0.02383333333,-5.492041055e-06
0.02385416667,-6.196908998e-06
0.023875,-7.316826213e-06
0.02389583333,-8.564918062e-06
0.02391666667,-9.115982721e-06
0.0239375,-9.142523595e-06
0.02395833333,-9.04823446e-06
0.02397916667,-9.282920473e-06
0.024,-1.01440055e-05
0.02402083333,-1.144764337e-05
0.02404166667,-1.253181381e-05
0.0240625,-1.331037674e-05
0.02408333333,-1.365796652e-05
0.02410416667,-1.375296415e-05
0.024125,-1.400242581e-05
0.02414583333,-1.429542044e-05
0.02416666667,-1.463719218e-05
0.0241875,-1.496818277e-05
0.02420833333,-1.532791248e-05
0.02422916667,-1.574636735e-05
0.02425,-1.616640111e-05
0.02427083333,-1.650683589e-05
0.02429166667,-1.662448631e-05
0.0243125,-1.670333768e-05
0.02433333333,-1.664134288e-05
0.02435416667,-1.647370118e-05
0.024375,-1.635506851e-05
0.02439583333,-1.601443364e-05
0.02441666667,-1.536338823e-05
0.0244375,-1.48119907e-05
0.02445833333,-1.455307847e-05
0.02447916667,-1.477090154e-05
0.0245,-1.523461287e-05
0.02452083333,-1.547158536e-05
0.02454166667,-1.472960048e-05
0.0245625,-1.342291034e-05
0.02458333333,-1.161239106e-05
0.02460416667,-9.751610378e-06
0.024625,-8.203782272e-06
0.02464583333,-7.084537174e-06
0.02466666667,-6.206421858e-06
0.0246875,-5.666885045e-06
0.02470833333,-5.480867458e-06
0.02472916667,-5.593779861e-06
0.02475,-5.848678484e-06
0.02477083333,-5.81710492e-06
0.02479166667,-5.532526757e-06
0.0248125,-5.230871011e-06
0.02483333333,-5.189693184e-06
0.02485416667,-5.747651358e-06
0.024875,-6.629262316e-06
0.02489583333,-7.100590665e-06
0.02491666667,-6.426266282e-06
0.0249375,-4.84446673e-06
0.02495833333,-2.50851258e-06
0.02497916667,-1.470939424e-07
0.025,1.822686272e-06
0.02502083333,3.471054242e-06
0.02504166667,4.856919531e-06
0.0250625,6.31223611e-06
0.02508333333,7.834647477e-06
0.02510416667,8.995646567e-06
0.025125,9.741504982e-06
0.02514583333,1.021181106e-05
0.02516666667,1.045805584e-05
0.0251875,1.042173153e-05
0.02520833333,1.055144094e-05
0.02522916667,1.048707691e-05
0.02525,1.10988467e-05
0.02527083333,1.201353007e-05
0.02529166667,1.283621623e-05
0.0253125,1.284077825e-05
0.02533333333,1.167289065e-05
0.02535416667,9.282866813e-06
0.025375,6.853181276e-06
0.02539583333,5.68932137e-06
0.02541666667,6.904520887e-06
0.0254375,1.007062019e-05
0.02545833333,1.429218992e-05
0.02547916667,1.736487138e-05
0.0255,1.839466677e-05
0.02552083333,1.720220098e-05
0.02554166667,1.506277385e-05
0.0255625,1.290840373e-05
0.02558333333,1.182675987e-05
0.02560416667,1.200665611e-05
0.025625,1.294059257e-05
0.02564583333,1.441140284e-05
0.02566666667,1.545025953e-05
0.0256875,1.543742837e-05
0.02570833333,1.370045538e-05
0.02572916667,1.00402458e-05
0.02575,5.824354503e-06
0.02577083333,2.450590728e-06
0.02579166667,1.44094065e-06
0.0258125,3.355678928e-06
0.02583333333,7.296370313e-06
0.02585416667,1.164016885e-05
0.025875,1.473959401e-05
0.02589583333,1.576095383e-05
0.02591666667,1.452092147e-05
0.0259375,1.198017162e-05
0.02595833333,9.829005648e-06
0.02597916667,8.121107385e-06
0.026,7.254106094e-06
0.02602083333,6.994928299e-06
0.02604166667,6.635101272e-06
0.0260625,5.275596322e-06
0.02608333333,2.958509413e-06
0.02610416667,-4.063761025e-07
0.026125,-3.825220574e-06
0.02614583333,-7.013094091e-06
0.02616666667,-9.387470527e-06
0.0261875,-1.091963895e-05
0.02620833333,-1.149137552e-05
0.02622916667,-1.12691896e-05
0.02625,-9.605106243e-06
0.02627083333,-7.182241461e-06
0.02629166667,-4.119609457e-06
0.0263125,-2.162243391e-06
0.02633333333,-1.500598046e-06
0.02635416667,-2.922865406e-06
0.026375,-4.955087206e-06
0.02639583333,-6.540268259e-06
0.02641666667,-6.506738828e-06
0.0264375,-5.618095656e-06
0.02645833333,-4.118317065e-06
0.02647916667,-3.921265034e-06
0.0265,-5.03425872e-06
0.02652083333,-7.527677553e-06
0.02654166667,-1.042884742e-05
0.0265625,-1.349427384e-05
0.02658333333,-1.639717811e-05
0.02660416667,-1.890635212e-05
0.026625,-2.056623816e-05
0.02664583333,-2.063133797e-05
0.02666666667,-1.860534758e-05
0.0266875,-1.585573591e-05
0.02670833333,-1.340856397e-05
0.02672916667,-1.28362517e-05
0.02675,-1.405796138e-05
0.02677083333,-1.576163231e-05
0.02679166667,-1.595822687e-05
0.0268125,-1.433050056e-05
0.02683333333,-1.122071535e-05
0.02685416667,-8.217351024e-06
0.026875,-6.630912594e-06
0.02689583333,-6.475633199e-06
0.02691666667,-7.501292203e-06
0.0269375,-9.235796824e-06
0.02695833333,-1.106200307e-05
0.02697916667,-1.367466575e-05
0.027,-1.655419328e-05
0.02702083333,-1.863387115e-05
0.02704166667,-1.824199353e-05
0.0270625,-1.569649248e-05
0.02708333333,-1.083864845e-05
0.02710416667,-5.947274985e-06
0.027125,-2.261060672e-06
0.02714583333,-9.168588804e-07
0.02716666667,-1.584920938e-06
0.0271875,-2.872202913e-06
0.02720833333,-3.697095963e-06
0.02722916667,-3.042888693e-06
0.02725,-1.881367098e-07
0.02727083333,3.180997965e-06
0.02729166667,5.871133908e-06
0.0273125,5.189220701e-06
0.02733333333,1.310597554e-06
0.02735416667,-4.959963462e-06
0.027375,-1.050992887e-05
0.02739583333,-1.353537664e-05
0.02741666667,-1.29037935e-05
0.0274375,-1.032127147e-05
0.02745833333,-6.846380074e-06
0.02747916667,-4.054644705e-06
0.0275,-7.718931556e-07
0.02752083333,3.1576119e-06
0.02754166667,8.225404599e-06
0.0275625,1.23648897e-05
0.02758333333,1.464049637e-05
0.02760416667,1.38872183e-05
0.027625,1.270658504e-05
0.02764583333,1.34735601e-05
0.02766666667,1.631247142e-05
0.0276875,1.89416096e-05
0.02770833333,1.879921547e-05
0.02772916667,1.536380296e-05
0.02775,1.077127672e-05
0.02777083333,8.174371033e-06
0.02779166667,9.295973541e-06
0.0278125,1.177050217e-05
0.02783333333,1.207165587e-05
0.02785416667,6.547235898e-06
0.027875,-2.697380296e-06
0.02789583333,-9.952392247e-06
0.02791666667,-9.631796274e-06
0.0279375,-4.040948625e-07
0.02795833333,1.39909007e-05
0.02797916667,2.562637019e-05
0.028,3.010038563e-05
0.02802083333,2.78018324e-05
0.02804166667,2.050594776e-05
0.0280625,1.287650684e-05
0.02808333333,7.395790817e-06
0.02810416667,4.754356723e-06
0.028125,6.600759662e-06
0.02814583333,1.205540138e-05
0.02816666667,1.976325075e-05
0.0281875,2.49690238e-05
0.02820833333,2.274567669e-05
0.02822916667,1.130686724e-05
0.02825,-5.737087122e-06
0.02827083333,-1.979874287e-05
0.02829166667,-2.338317063e-05
0.0283125,-1.506005992e-05
0.02833333333,1.293319656e-07
0.02835416667,1.429443182e-05
0.028375,2.32465718e-05
0.02839583333,2.565189061e-05
0.02841666667,2.407883403e-05
0.0284375,1.974968654e-05
0.02845833333,1.440458618e-05
0.02847916667,8.103542314e-06
0.0285,3.671961395e-06
0.02852083333,2.995690693e-06
0.02854166667,6.035513252e-06
0.0285625,1.020800755e-05
0.02858333333,9.634195521e-06
0.02860416667,1.614028179e-06
0.028625,-9.770440556e-06
0.02864583333,-1.678658009e-05
0.02866666667,-1.483749293e-05
0.0286875,-6.502655197e-06
0.02870833333,-1.080218681e-06
0.02872916667,-5.689710633e-06
0.02875,-1.869668267e-05
0.02877083333,-2.865352872e-05
0.02879166667,-2.708516695e-05
0.0288125,-1.248304307e-05
0.02883333333,4.437533335e-06
0.02885416667,1.052533298e-05
0.028875,1.535510364e-06
0.02889583333,-1.421346133e-05
0.02891666667,-2.405393388e-05
0.0289375,-1.951203194e-05
0.02895833333,-6.761452823e-06
0.02897916667,7.882354112e-07
0.029,-3.030920197e-06
0.02902083333,-1.024149242e-05
0.02904166667,-1.145677834e-05
0.0290625,8.480574252e-07
0.02908333333,1.561782665e-05
0.02910416667,1.770530798e-05
0.029125,-2.421946192e-06
0.02914583333,-3.31103729e-05
0.02916666667,-5.367305494e-05
0.0291875,-4.768439248e-05
0.02920833333,-1.903714838e-05
0.02922916667,9.831474927e-06
0.02925,1.697382686e-05
0.02927083333,-1.211270501e-06
0.02929166667,-3.030841253e-05
0.0293125,-4.833519051e-05
0.02933333333,-4.789109516e-05
0.02935416667,-3.68278852e-05
0.029375,-3.223869862e-05
0.02939583333,-3.397333057e-05
0.02941666667,-3.138578541e-05
0.0294375,-1.259115015e-05
0.02945833333,1.694001912e-05
0.02947916667,3.099282912e-05
0.0295,9.025526197e-06
0.02952083333,-4.613253259e-05
0.02954166667,-0.0001033458684
0.0295625,-0.0001144089474
0.02958333333,-5.926743324e-05
0.02960416667,3.817379184e-05
0.029625,0.0001242239232
0.02964583333,0.0001511744194
0.02966666667,0.0001107365097
0.0296875,3.376512905e-05
0.02970833333,-3.417258631e-05
0.02972916667,-6.866140757e-05
0.02975,-7.051233843e-05
0.02977083333,-5.911687913e-05
0.02979166667,-4.026630995e-05
0.0298125,-1.082007293e-05
0.02983333333,3.2099706e-05
0.02985416667,6.149520777e-05
0.029875,4.25050639e-05
0.02989583333,-4.011880083e-05
0.02991666667,-0.0001639470574
0.0299375,-0.0002590708027
0.02995833333,-0.0002465609869
0.02997916667,-0.0001405352959
0.03,0.0001298924035
0.03002083333,0.0002427819854
0.03004166667,0.0002630617819
0.0300625,0.0001729828218
0.03008333333,4.919119237e-05
0.03010416667,-3.703664333e-05
0.030125,-5.858871737e-05
0.03014583333,-2.949079317e-05
0.03016666667,1.588630221e-05
0.0301875,4.737322888e-05
0.03020833333,6.86150961e-05
0.03022916667,8.229462401e-05
0.03025,8.249315579e-05
0.03027083333,4.698461998e-05
0.03029166667,-2.825380943e-05
0.0303125,-0.0001165139402
0.03033333333,-0.0001678202098
0.03035416667,-0.0001447498653
0.030375,-5.195787526e-05
0.03039583333,5.900416727e-05
0.03041666667,0.0001256772812
0.0304375,0.000117125106
0.03045833333,5.287320164e-05
0.03047916667,-1.211930066e-05
0.0305,-4.051343785e-05
0.03052083333,-2.544105701e-05
0.03054166667,9.394086192e-06
0.0305625,3.433896927e-05
0.03058333333,4.076095138e-05
0.03060416667,4.222931602e-05
0.030625,5.009901361e-05
0.03064583333,6.480790034e-05
0.03066666667,6.401310384e-05
0.0306875,3.801839921e-05
0.03070833333,-2.648956979e-06
0.03072916667,-2.844991468e-05
0.03075,-1.923157834e-05
0.03077083333,2.11478291e-05
0.03079166667,6.308125739e-05
0.0308125,7.341161108e-05
0.03083333333,4.535421249e-05
0.03085416667,-5.834609595e-08
0.030875,-3.179062696e-05
0.03089583333,-3.266175554e-05
0.03091666667,-1.071947008e-05
0.0309375,1.138084281e-05
0.03095833333,1.707714728e-05
0.03097916667,1.253900973e-05
0.031,8.511332453e-06
0.03102083333,1.662610885e-05
0.03104166667,2.884264723e-05
0.0310625,2.830177436e-05
0.03108333333,8.202469871e-06
0.03110416667,-1.784052074e-05
0.031125,-3.0690524e-05
0.03114583333,-1.744697147e-05
0.03116666667,1.300606982e-05
0.0311875,3.97170661e-05
0.03120833333,4.339410953e-05
0.03122916667,2.558127017e-05
0.03125,9.635006109e-07
0.03127083333,-9.831693205e-06
0.03129166667,-1.342269456e-06
0.0313125,1.803767918e-05
0.03133333333,3.100563481e-05
0.03135416667,2.994070383e-05
0.031375,1.912777407e-05
0.03139583333,7.897607247e-06
0.03141666667,2.201990128e-06
0.0314375,1.879944875e-06
0.03145833333,-1.040093707e-06
0.03147916667,-7.534103588e-06
0.0315,-1.586634426e-05
0.03152083333,-2.342762491e-05
0.03154166667,-2.810881961e-05
0.0315625,-2.904321809e-05
0.03158333333,-2.993434646e-05
0.03160416667,-2.694865907e-05
0.031625,-1.677016735e-05
0.03164583333,1.998217385e-06
0.03166666667,2.397296885e-05
0.0316875,3.762384222e-05
0.03170833333,3.491720054e-05
0.03172916667,1.826536209e-05
0.03175,-3.00202737e-06
0.03177083333,-1.546600288e-05
0.03179166667,-1.526430242e-05
0.0318125,-5.687619705e-06
0.03183333333,3.69182635e-06
0.03185416667,6.362091881e-06
0.031875,4.111674116e-06
0.03189583333,-1.050887022e-06
0.03191666667,-6.700944141e-06
0.0319375,-1.339911614e-05
0.03195833333,-1.923283526e-05
0.03197916667,-1.994285776e-05
0.032,-1.200234601e-05
0.03202083333,5.297614734e-06
0.03204166667,2.436599789e-05
0.0320625,3.460624794e-05
0.03208333333,2.906176087e-05
0.03210416667,1.200982297e-05
0.032125,-4.317426828e-06
0.03214583333,-1.071335191e-05
0.03216666667,-3.49179254e-06
0.0321875,6.075097644e-06
0.03220833333,8.963453183e-06
0.03222916667,1.376282057e-07
0.03225,-1.438542404e-05
0.03227083333,-2.484041033e-05
0.03229166667,-2.707597378e-05
0.0323125,-1.850109766e-05
0.03233333333,-8.032259757e-06
0.03235416667,-1.898881123e-06
0.032375,-8.8131344e-07
0.03239583333,-2.754241223e-06
0.03241666667,1.165676622e-08
0.0324375,5.417943612e-06
0.03245833333,1.196425546e-05
0.03247916667,1.690876888e-05
0.0325,2.128965752e-05
0.03252083333,2.643291919e-05
0.03254166667,3.412666774e-05
0.0325625,4.085649562e-05
0.03258333333,4.389231253e-05
0.03260416667,3.795912926e-05
0.032625,2.512930041e-05
0.03264583333,8.733517461e-06
0.03266666667,-3.200371566e-06
0.0326875,-9.600489648e-06
0.03270833333,-7.720347639e-06
0.03272916667,-4.68894541e-06
0.03275,-9.411308497e-07
0.03277083333,-1.435261652e-06
0.03279166667,-3.718157586e-06
0.0328125,-7.919284144e-06
0.03283333333,-1.132552552e-05
0.03285416667,-9.908661013e-06
0.032875,-3.719771939e-06
0.03289583333,5.285205134e-06
0.03291666667,1.679874185e-05
0.0329375,2.237489207e-05
0.03295833333,2.587012204e-05
0.03297916667,2.439637865e-05
0.033,2.179275725e-05
0.03302083333,1.858056748e-05
0.03304166667,1.456726659e-05
0.0330625,7.63278149e-06
0.03308333333,-2.133366053e-07
0.03310416667,-3.739009571e-06
0.033125,-1.20779896e-06
0.03314583333,8.176926713e-06
0.03316666667,1.858111682e-05
0.0331875,2.448564373e-05
0.03320833333,2.210271668e-05
0.03322916667,1.343930126e-05
0.03325,5.590620276e-06
0.03327083333,2.148544581e-06
0.03329166667,4.72892043e-06
0.0333125,1.193688422e-05
0.03333333333,1.53754263e-05
0.03335416667,1.564507693e-05
0.033375,1.329477527e-05
0.03339583333,8.407821952e-06
0.03341666667,4.519574304e-06
0.0334375,6.211553227e-08
0.03345833333,-5.15775173e-06
0.03347916667,-8.996697943e-06
0.0335,-1.049543516e-05
0.03352083333,-7.956821719e-06
0.03354166667,-2.588023108e-06
0.0335625,1.787601605e-06
0.03358333333,3.812990826e-06
0.03360416667,3.373503205e-06
0.033625,3.887410003e-07
0.03364583333,-2.605196869e-06
0.03366666667,-2.193999308e-06
0.0336875,-8.173815331e-07
0.03370833333,3.011144599e-06
0.03372916667,6.154747098e-06
0.03375,1.127019186e-05
0.03377083333,1.663463991e-05
0.03379166667,2.167239472e-05
0.0338125,2.451537512e-05
0.03383333333,2.375458644e-05
0.03385416667,1.977220927e-05
0.033875,1.203102784e-05
0.03389583333,4.559075023e-06
0.03391666667,-4.182974862e-06
0.0339375,-1.04458295e-05
0.03395833333,-1.279284061e-05
0.03397916667,-1.391196747e-05
0.034,-1.118196269e-05
0.03402083333,-1.123508991e-05
0.03404166667,-1.348619844e-05
0.0340625,-2.149847023e-05
0.03408333333,-2.742588913e-05
0.03410416667,-2.563283851e-05
0.034125,-1.650979721e-05
0.03414583333,2.71764975e-07
0.03416666667,1.787433575e-05
0.0341875,3.031474989e-05
0.03420833333,3.24628927e-05
0.03422916667,2.569053686e-05
0.03425,1.52442426e-05
0.03427083333,5.10432983e-06
0.03429166667,1.386285476e-06
0.0343125,8.276490462e-07
0.03433333333,6.951070191e-07
0.03435416667,1.011031827e-06
0.034375,-1.482809466e-06
0.03439583333,-1.253924438e-06
0.03441666667,-2.116052201e-06
0.0344375,-6.29022361e-06
0.03445833333,-1.326021174e-05
0.03447916667,-1.761795284e-05
0.0345,-1.602575503e-05
0.03452083333,-5.928152859e-06
0.03454166667,9.226785551e-06
0.0345625,2.094544107e-05
0.03458333333,2.507624959e-05
0.03460416667,2.063476859e-05
0.034625,1.305969454e-05
0.03464583333,6.580316949e-06
0.03466666667,5.015828265e-06
0.0346875,6.198168194e-06
0.03470833333,3.874999493e-06
0.03472916667,-8.46210753e-07
0.03475,-6.727349501e-06
0.03477083333,-1.107797198e-05
0.03479166667,-9.098323062e-06
0.0348125,-6.116116765e-06
0.03483333333,-1.823084517e-06
0.03485416667,-4.03476588e-06
0.034875,-9.401851457e-06
0.03489583333,-1.401269583e-05
0.03491666667,-1.305387559e-05
0.0349375,-6.847093573e-06
0.03495833333,1.516863222e-07
0.03497916667,7.671829735e-06
0.035,1.585844257e-05
0.03502083333,2.515490814e-05
0.03504166667,3.509964881e-05
0.0350625,4.222225834e-05
0.03508333333,4.427285967e-05
0.03510416667,3.799707338e-05
0.035125,3.021559678e-05
0.03514583333,2.225211938e-05
0.03516666667,2.136038347e-05
0.0351875,2.045141082e-05
0.03520833333,2.003569716e-05
0.03522916667,1.634364162e-05
0.03525,9.293020412e-06
0.03527083333,2.021273531e-06
0.03529166667,-7.605020073e-06
0.0353125,-1.41168548e-05
0.03533333333,-2.022671652e-05
0.03535416667,-2.189491352e-05
0.035375,-1.874065856e-05
0.03539583333,-1.427428651e-05
0.03541666667,-2.354162461e-06
0.0354375,4.014817023e-06
0.03545833333,1.004818841e-05
0.03547916667,1.21500434e-05
0.0355,1.296461051e-05
0.03552083333,1.549463923e-05
0.03554166667,2.170635889e-05
0.0355625,2.736354872e-05
0.03558333333,3.158335312e-05
0.03560416667,3.3248416e-05
0.035625,3.143373033e-05
0.03564583333,3.210977229e-05
0.03566666667,3.438014028e-05
0.0356875,3.380119233e-05
0.03570833333,3.050416854e-05
0.03572916667,2.461547592e-05
0.03575,2.049348222e-05
0.03577083333,1.858249016e-05
0.03579166667,1.280511515e-05
0.0358125,6.568946901e-06
0.03583333333,-3.085716799e-06
0.03585416667,-1.396584503e-05
0.035875,-1.967447679e-05
0.03589583333,-1.679543493e-05
0.03591666667,-7.035194358e-06
0.0359375,2.039238097e-06
0.03595833333,5.087111731e-06
0.03597916667,4.255357453e-06
0.036,-4.306282335e-07
0.03602083333,1.773399163e-06
0.03604166667,6.875199688e-06
0.0360625,1.168284052e-05
0.03608333333,1.178117418e-05
0.03610416667,7.756918421e-06
0.036125,6.45052387e-06
0.03614583333,1.122879985e-05
0.03616666667,2.027470873e-05
0.0361875,2.916212907e-05
0.03620833333,2.750548083e-05
0.03622916667,1.855208757e-05
0.03625,6.581367415e-06
0.03627083333,3.08889912e-06
0.03629166667,8.798519048e-06
0.0363125,2.266836236e-05
0.03633333333,3.00233587e-05
0.03635416667,2.810869955e-05
0.036375,1.888341285e-05
0.03639583333,1.017470822e-05
0.03641666667,3.508578629e-06
0.0364375,6.682755611e-07
0.03645833333,-1.02766171e-06
0.03647916667,-7.556175206e-06
0.0365,-1.341408642e-05
0.03652083333,-1.808665911e-05
0.03654166667,-1.54749614e-05
0.0365625,-9.303674233e-06
0.03658333333,-5.693959338e-06
0.03660416667,-5.25787982e-06
0.036625,-7.790287782e-06
0.03664583333,-6.606483112e-06
0.03666666667,-1.040812094e-06
0.0366875,1.10222627e-05
0.03670833333,2.066110937e-05
0.03672916667,2.152504749e-05
0.03675,1.699991117e-05
0.03677083333,1.311876895e-05
0.03679166667,1.637759487e-05
0.0368125,2.005518036e-05
0.03683333333,2.384059189e-05
0.03685416667,2.081685489e-05
0.036875,1.14917566e-05
0.03689583333,4.285540399e-06
0.03691666667,2.223008778e-06
0.0369375,8.495481779e-06
0.03695833333,1.228990277e-05
0.03697916667,1.031510237e-05
0.037,2.677508064e-07
0.03702083333,-8.810166037e-06
0.03704166667,-1.230268754e-05
0.0370625,-7.118426765e-06
0.03708333333,-7.338740943e-06
0.03710416667,-8.650231393e-06
0.037125,-2.169035179e-05
0.03714583333,-2.910138755e-05
0.03716666667,-2.698450044e-05
0.0371875,-1.375782085e-05
0.03720833333,-9.09064056e-07
0.03722916667,1.170048108e-06
0.03725,-6.600488632e-06
0.03727083333,-2.172491804e-05
0.03729166667,-2.745259553e-05
0.0373125,-1.85572535e-05
0.03733333333,3.355876288e-07
0.03735416667,9.793500794e-06
0.037375,6.697636763e-06
0.03739583333,-5.893154594e-06
0.03741666667,-1.975423038e-05
0.0374375,-1.67317794e-05
0.03745833333,-3.096461114e-06
0.03747916667,1.291079298e-05
0.0375,1.867407627e-05
0.03752083333,1.54372683e-05
0.03754166667,1.085652912e-05
0.0375625,1.216183227e-05
0.03758333333,2.303147994e-05
0.03760416667,2.626282912e-05
0.037625,1.630304905e-05
0.03764583333,-6.760367341e-06
0.03766666667,-2.836693784e-05
0.0376875,-3.719035521e-05
0.03770833333,-3.031794222e-05
0.03772916667,-1.747442366e-05
0.03775,-1.300464282e-05
0.03777083333,-2.77577019e-05
0.03779166667,-5.885717474e-05
0.0378125,-7.903412916e-05
0.03783333333,-7.909051783e-05
0.03785416667,-5.693056301e-05
0.037875,-2.385150219e-05
0.03789583333,3.85909334e-06
0.03791666667,2.596409468e-05
0.0379375,3.617072798e-05
0.03795833333,4.140715828e-05
0.03797916667,3.879233191e-05
0.038,3.065747296e-05
0.03802083333,1.61451826e-05
0.03804166667,1.795279331e-06
0.0380625,-1.964904186e-06
0.03808333333,5.556924407e-06
0.03810416667,1.986139978e-05
0.038125,2.826017044e-05
0.03814583333,2.219895396e-05
0.03816666667,4.752354471e-06
0.0381875,-1.753802462e-05
0.03820833333,-3.220099461e-05
0.03822916667,-3.815797027e-05
0.03825,-3.132536222e-05
0.03827083333,-2.4698571e-05
0.03829166667,-2.114438394e-05
0.0383125,-1.496485129e-05
0.03833333333,-9.056662748e-06
0.03835416667,-3.501157153e-06
0.038375,-2.83511713e-06
0.03839583333,-9.161758499e-06
0.03841666667,-2.030784708e-05
0.0384375,-2.51985748e-05
0.03845833333,-2.076975397e-05
0.03847916667,-4.940618055e-06
0.0385,1.196075846e-05
0.03852083333,2.203324766e-05
0.03854166667,2.513562504e-05
0.0385625,2.816185224e-05
0.03858333333,2.92157365e-05
0.03860416667,3.318122981e-05
0.038625,3.240205115e-05
0.03864583333,2.652193689e-05
0.03866666667,1.206738671e-05
0.0386875,-3.141848993e-06
0.03870833333,-1.169422012e-05
0.03872916667,-5.603576938e-06
0.03875,5.917889212e-06
0.03877083333,1.628237078e-05
0.03879166667,2.008923548e-05
0.0388125,1.350002185e-05
0.03883333333,2.538412446e-06
0.03885416667,-6.397796824e-06
0.038875,-1.256123505e-05
0.03889583333,-1.127946143e-05
0.03891666667,-8.512229215e-06
0.0389375,-1.817894372e-06
0.03895833333,1.061329658e-05
0.03897916667,2.083107756e-05
0.039,2.225950993e-05
0.03902083333,1.549570516e-05
0.03904166667,-3.733935955e-06
0.0390625,-1.90799401e-05
0.03908333333,-2.958146069e-05
0.03910416667,-2.548595512e-05
0.039125,-7.151383215e-06
0.03914583333,1.372588031e-05
0.03916666667,3.594285226e-05
0.0391875,4.408983659e-05
0.03920833333,4.165016435e-05
0.03922916667,3.506374196e-05
0.03925,2.273409518e-05
0.03927083333,1.209048605e-05
0.03929166667,5.53267364e-06
0.0393125,6.511584161e-06
0.03933333333,1.170730866e-05
0.03935416667,2.263486385e-05
0.039375,2.937554382e-05
0.03939583333,2.463743658e-05
0.03941666667,8.642573448e-06
0.0394375,-1.565583989e-05
0.03945833333,-3.572547212e-05
0.03947916667,-4.578229709e-05
0.0395,-4.690637797e-05
0.03952083333,-3.64601583e-05
0.03954166667,-2.702315396e-05
0.0395625,-1.427661209e-05
0.03958333333,-3.10411906e-06
0.03960416667,2.655124263e-07
0.039625,1.832923772e-06
0.03964583333,-4.853236078e-06
0.03966666667,-1.604654608e-05
0.0396875,-2.776346082e-05
0.03970833333,-2.872254117e-05
0.03972916667,-2.166904414e-05
0.03975,-5.758898624e-06
0.03977083333,6.464925718e-06
0.03979166667,9.70194742e-06
0.0398125,1.463730769e-06
0.03983333333,-1.614423491e-05
0.03985416667,-3.352301064e-05
0.039875,-4.647367678e-05
0.03989583333,-5.30632351e-05
0.03991666667,-5.128563498e-05
0.0399375,-4.736178744e-05
0.03995833333,-3.608442785e-05
0.03997916667,-2.481154479e-05
0.04,-1.4414416e-05
0.04002083333,-1.102649367e-05
0.04004166667,-9.759676686e-06
0.0400625,-1.061141847e-05
0.04008333333,-1.611589141e-05
0.04010416667,-1.248488843e-05
0.040125,-8.49677599e-06
0.04014583333,-4.712146165e-06
0.04016666667,-4.923041615e-06
0.0401875,-8.350383723e-06
0.04020833333,-1.504936972e-05
0.04022916667,-2.405043961e-05
0.04025,-3.71392307e-05
0.04027083333,-4.923592132e-05
0.04029166667,-6.020503497e-05
0.0403125,-6.478057185e-05
0.04033333333,-6.097863661e-05
0.04035416667,-4.991668538e-05
0.040375,-3.983114948e-05
0.04039583333,-2.994905117e-05
0.04041666667,-2.632631731e-05
0.0404375,-2.333858356e-05
0.04045833333,-1.380143658e-05
0.04047916667,-1.625169944e-06
0.0405,1.027716644e-05
0.04052083333,1.479677849e-05
0.04054166667,1.066024925e-05
0.0405625,5.534150205e-07
0.04058333333,-6.263907835e-06
0.04060416667,-7.2833177e-06
0.040625,-6.888923281e-07
0.04064583333,4.099499165e-06
0.04066666667,1.711728373e-06
0.0406875,-8.837005225e-06
0.04070833333,-2.242827941e-05
0.04072916667,-2.944772314e-05
0.04075,-2.543240589e-05
0.04077083333,-1.640187656e-05
0.04079166667,-9.493272046e-06
0.0408125,-6.983517324e-06
0.04083333333,-1.281287769e-05
0.04085416667,-1.883024561e-05
0.040875,-1.998970765e-05
0.04089583333,-1.310461357e-05
0.04091666667,-5.044256341e-06
0.0409375,1.36120002e-06
0.04095833333,-2.174971314e-06
0.04097916667,-2.179741386e-06
0.041,-4.634543075e-06
0.04102083333,1.470436928e-06
0.04104166667,5.0277431e-06
0.0410625,9.660418073e-06
0.04108333333,7.748105418e-06
0.04110416667,5.353363576e-06
0.041125,4.823437393e-06
0.04114583333,1.05345398e-05
0.04116666667,1.964520925e-05
0.0411875,2.499156108e-05
0.04120833333,2.576569204e-05
0.04122916667,2.155526636e-05
0.04125,1.466487174e-05
0.04127083333,1.085242093e-05
0.04129166667,1.617262205e-05
0.0413125,1.956746928e-05
0.04133333333,2.184926234e-05
0.04135416667,1.71636475e-05
0.041375,9.962401236e-06
0.04139583333,5.375150977e-06
0.04141666667,-4.825362225e-07
0.0414375,-9.232446246e-06
0.04145833333,-1.694544699e-05
0.04147916667,-2.333971133e-05
0.0415,-2.332689655e-05
0.04152083333,-2.451285218e-05
0.04154166667,-2.077513636e-05
0.0415625,-1.953799983e-05
0.04158333333,-2.038759703e-05
0.04160416667,-1.754072946e-05
0.041625,-1.114174393e-05
0.04164583333,7.346212442e-06
0.04166666667,2.258727181e-05
0.0416875,3.378853944e-05
0.04170833333,3.912060129e-05
0.04172916667,3.565232691e-05
0.04175,3.096293949e-05
0.04177083333,2.69031807e-05
0.04179166667,2.688590757e-05
0.0418125,2.651364048e-05
0.04183333333,2.046915506e-05
0.04185416667,9.099408999e-06
0.041875,-5.795975085e-06
0.04189583333,-1.982945832e-05
0.04191666667,-3.179866326e-05
0.0419375,-4.226113742e-05
0.04195833333,-5.167446579e-05
0.04197916667,-5.857365613e-05
0.042,-5.971621431e-05
0.04202083333,-5.37829801e-05
0.04204166667,-4.46017475e-05
0.0420625,-3.653663953e-05
0.04208333333,-3.613147783e-05
0.04210416667,-3.925497003e-05
0.042125,-4.446342064e-05
0.04214583333,-4.183020792e-05
0.04216666667,-3.180713611e-05
0.0421875,-2.202335781e-05
0.04220833333,-1.477932256e-05
0.04222916667,-1.222737956e-05
0.04225,-1.445690123e-05
0.04227083333,-1.657781104e-05
0.04229166667,-2.109107663e-05
0.0423125,-2.468557432e-05
0.04233333333,-3.211997682e-05
0.04235416667,-3.992968777e-05
0.042375,-4.371729665e-05
0.04239583333,-4.273278319e-05
0.04241666667,-3.915831621e-05
0.0424375,-3.719692177e-05
0.04245833333,-4.185999569e-05
0.04247916667,-5.304367733e-05
0.0425,-6.566204684e-05
0.04252083333,-7.309475041e-05
0.04254166667,-7.039614138e-05
0.0425625,-5.619811782e-05
0.04258333333,-4.075416291e-05
0.04260416667,-3.128096432e-05
0.042625,-3.173535879e-05
0.04264583333,-3.857718912e-05
0.04266666667,-4.729601278e-05
0.0426875,-4.985705891e-05
0.04270833333,-4.539081419e-05
0.04272916667,-3.820745042e-05
0.04275,-2.93256453e-05
0.04277083333,-2.334092824e-05
0.04279166667,-2.126043546e-05
0.0428125,-2.296088678e-05
0.04283333333,-3.274170376e-05
0.04285416667,-4.169768727e-05
0.042875,-4.971810995e-05
0.04289583333,-4.958298086e-05
0.04291666667,-4.241340139e-05
0.0429375,-2.984425191e-05
0.04295833333,-1.594157584e-05
0.04297916667,-1.061734474e-05
0.043,-1.695629544e-05
0.04302083333,-3.3185348e-05
0.04304166667,-5.094685184e-05
0.0430625,-5.867976142e-05
0.04308333333,-5.351348955e-05
0.04310416667,-3.785040826e-05
0.043125,-1.860789052e-05
0.04314583333,-9.628829503e-07
0.04316666667,7.963943972e-06
0.0431875,4.39320138e-06
0.04320833333,-9.026664884e-06
0.04322916667,-2.354444587e-05
0.04325,-3.415325409e-05
0.04327083333,-3.849563655e-05
0.04329166667,-2.798675087e-05
0.0433125,-9.555490578e-06
0.04333333333,1.10941146e-05
0.04335416667,2.674306597e-05
0.043375,3.106722579e-05
0.04339583333,1.982903996e-05
0.04341666667,-2.062801514e-06
0.0434375,-2.553081504e-05
0.04345833333,-3.62599967e-05
0.04347916667,-2.884382047e-05
0.0435,-1.119713761e-05
0.04352083333,1.157930183e-05
0.04354166667,2.571693039e-05
0.0435625,2.816626875e-05
0.04358333333,1.8978144e-05
0.04360416667,4.204603556e-06
0.043625,-4.525541044e-06
0.04364583333,-6.70396912e-06
0.04366666667,-3.154459591e-07
0.0436875,8.25510142e-06
0.04370833333,1.862065801e-05
0.04372916667,3.175329039e-05
0.04375,4.363040352e-05
0.04377083333,5.22944938e-05
0.04379166667,5.176376726e-05
0.0438125,4.269941201e-05
0.04383333333,2.752985165e-05
0.04385416667,1.769718074e-05
0.043875,1.147285275e-05
0.04389583333,1.7701248e-05
0.04391666667,2.216607572e-05
0.0439375,2.769875027e-05
0.04395833333,2.280790432e-05
0.04397916667,8.903682101e-06
0.044,-7.309961802e-06
0.04402083333,-1.873501606e-05
0.04404166667,-2.363721615e-05
0.0440625,-1.909644925e-05
0.04408333333,-1.271138717e-05
0.04410416667,-1.712712447e-06
0.044125,1.009716561e-05
0.04414583333,2.422991929e-05
0.04416666667,3.449062933e-05
0.0441875,3.978718451e-05
0.04420833333,4.001470734e-05
0.04422916667,3.652825035e-05
0.04425,3.052177271e-05
0.04427083333,2.87117582e-05
0.04429166667,2.914658035e-05
0.0443125,3.13189521e-05
0.04433333333,3.447212293e-05
0.04435416667,3.140555782e-05
0.044375,1.967683056e-05
0.04439583333,3.264433417e-06
0.04441666667,-1.636817251e-05
0.0444375,-3.289776578e-05
0.04445833333,-4.33598143e-05
0.04447916667,-4.68436665e-05
0.0445,-4.413316492e-05
0.04452083333,-3.761615517e-05
0.04454166667,-3.440532601e-05
0.0445625,-3.652673695e-05
0.04458333333,-4.781372263e-05
0.04460416667,-6.036170817e-05
0.044625,-7.307570195e-05
0.04464583333,-7.818314043e-05
0.04466666667,-7.337743591e-05
0.0446875,-6.437528646e-05
0.04470833333,-4.610118413e-05
0.04472916667,-2.997735828e-05
0.04475,-1.584487836e-05
0.04477083333,-5.091610092e-06
0.04479166667,-6.384378594e-06
0.0448125,-1.333431283e-05
0.04483333333,-2.738118746e-05
0.04485416667,-3.860321158e-05
0.044875,-3.965602446e-05
0.04489583333,-3.296848445e-05
0.04491666667,-2.611097261e-05
0.0449375,-2.698370736e-05
0.04495833333,-4.11586152e-05
0.04497916667,-6.033029786e-05
0.045,-7.927020488e-05
0.04502083333,-8.73106037e-05
0.04504166667,-7.89527403e-05
0.0450625,-6.055100675e-05
0.04508333333,-3.977635424e-05
0.04510416667,-2.385790503e-05
0.045125,-2.064353794e-05
0.04514583333,-2.006128307e-05
0.04516666667,-2.201289499e-05
0.0451875,-2.091716487e-05
0.04520833333,-2.007500734e-05
0.04522916667,-1.886463906e-05
0.04525,-1.802192492e-05
0.04527083333,-1.882319521e-05
0.04529166667,-1.94740569e-05
0.0453125,-2.028505332e-05
0.04533333333,-2.3811559e-05
0.04535416667,-3.211735748e-05
0.045375,-3.787433525e-05
0.04539583333,-3.673867832e-05
0.04541666667,-2.893334931e-05
0.0454375,-1.358341797e-05
0.04545833333,2.110692776e-06
0.04547916667,1.478713057e-05
0.0455,1.965277261e-05
0.04552083333,2.068100002e-05
0.04554166667,1.722621346e-05
0.0455625,1.528617577e-05
0.04558333333,1.169835195e-05
0.04560416667,7.415918844e-06
0.045625,3.071431365e-06
0.04564583333,1.164392415e-06
0.04566666667,2.821077487e-06
0.0456875,8.275337677e-06
0.04570833333,1.505666205e-05
0.04572916667,2.311518983e-05
0.04575,2.253410821e-05
0.04577083333,1.363147203e-05
0.04579166667,4.616120805e-06
0.0458125,-7.125187267e-07
0.04583333333,1.101653424e-06
0.04585416667,1.023176173e-05
0.045875,2.080375634e-05
0.04589583333,3.139381442e-05
0.04591666667,3.49240654e-05
0.0459375,3.294248745e-05
0.04595833333,2.501784184e-05
0.04597916667,1.573791815e-05
0.046,5.075695299e-06
0.04602083333,-4.400434591e-06
0.04604166667,-1.243118004e-05
0.0460625,-1.605136822e-05
0.04608333333,-1.211215385e-05
0.04610416667,9.609254903e-07
0.046125,1.757458449e-05
0.04614583333,3.125192234e-05
0.04616666667,3.461762753e-05
0.0461875,2.554294952e-05
0.04620833333,7.61742649e-06
0.04622916667,-8.464307939e-06
0.04625,-1.436689672e-05
0.04627083333,-4.927447662e-06
0.04629166667,9.819345905e-06
0.0463125,2.141128789e-05
0.04633333333,1.902896838e-05
0.04635416667,7.544737855e-06
0.046375,-9.881610822e-06
0.04639583333,-2.522167415e-05
0.04641666667,-3.597482282e-05
0.0464375,-4.109793008e-05
0.04645833333,-4.199075192e-05
0.04647916667,-3.919897063e-05
0.0465,-3.409138299e-05
0.04652083333,-2.459670577e-05
0.04654166667,-1.838631579e-05
0.0465625,-1.77591337e-05
0.04658333333,-2.553970626e-05
0.04660416667,-3.929044033e-05
0.046625,-4.771671229e-05
0.04664583333,-4.255722888e-05
0.04666666667,-2.18366913e-05
0.0466875,9.528269402e-06
0.04670833333,3.585122249e-05
0.04672916667,5.217373109e-05
0.04675,5.099042028e-05
0.04677083333,3.607194958e-05
0.04679166667,1.729126416e-05
0.0468125,2.563550197e-06
0.04683333333,-4.356962563e-06
0.04685416667,-1.61783737e-06
0.046875,3.461077085e-06
0.04689583333,4.058587365e-06
0.04691666667,-4.846524462e-06
0.0469375,-2.447179213e-05
0.04695833333,-5.462684931e-05
0.04697916667,-8.40781795e-05
0.047,-0.0001026612663
0.04702083333,-0.0001007702376
0.04704166667,-8.017299115e-05
0.0470625,-4.567134965e-05
0.04708333333,-1.170046562e-05
0.04710416667,1.240860365e-05
0.047125,2.500118899e-05
0.04714583333,2.161578232e-05
0.04716666667,1.366688593e-05
0.0471875,6.146068699e-06
0.04720833333,2.038410685e-06
0.04722916667,5.151653568e-06
0.04725,1.072725354e-05
0.04727083333,1.922586125e-05
0.04729166667,2.644101914e-05
0.0473125,2.751364991e-05
0.04733333333,1.783450716e-05
0.04735416667,2.516289896e-06
0.047375,-1.502970463e-05
0.04739583333,-2.339569619e-05
0.04741666667,-2.199418122e-05
0.0474375,-1.058833095e-05
0.04745833333,-1.113186045e-06
0.04747916667,1.780047114e-06
0.0475,-1.174699264e-06
0.04752083333,-6.018256499e-06
0.04754166667,-6.708566616e-06
0.0475625,2.578202384e-06
0.04758333333,1.537027129e-05
0.04760416667,2.707663953e-05
0.047625,3.166368697e-05
0.04764583333,3.104262214e-05
0.04766666667,2.847174983e-05
0.0476875,3.136018495e-05
0.04770833333,3.618471965e-05
0.04772916667,3.927639045e-05
0.04775,3.523591658e-05
0.04777083333,2.529713856e-05
0.04779166667,1.326687379e-05
0.0478125,4.855025963e-06
0.04783333333,2.36734104e-06
0.04785416667,3.582714271e-06
0.047875,3.070592356e-06
0.04789583333,1.959001565e-07
0.04791666667,-5.814361884e-06
0.0479375,-6.565337117e-06
0.04795833333,1.095110292e-06
0.04797916667,1.541821621e-05
0.048,2.878549458e-05
0.04802083333,3.34222641e-05
0.04804166667,2.709932232e-05
0.0480625,1.822394552e-05
0.04808333333,1.044089913e-05
0.04810416667,8.791151231e-06
0.048125,1.508876176e-05
0.04814583333,1.927660742e-05
0.04816666667,2.156209848e-05
0.0481875,2.185362428e-05
0.04820833333,1.663717012e-05
0.04822916667,1.658636575e-05
0.04825,1.966779564e-05
0.04827083333,2.250627222e-05
0.04829166667,2.597551065e-05
0.0483125,2.448746818e-05
0.04833333333,2.056341509e-05
0.04835416667,1.623015669e-05
0.048375,1.123726724e-05
0.04839583333,1.011186396e-05
0.04841666667,7.614326023e-06
0.0484375,4.787370017e-06
0.04845833333,-5.320530363e-07
0.04847916667,-2.708301054e-06
0.0485,-8.2100496e-07
0.04852083333,7.101003121e-06
0.04854166667,1.502690247e-05
0.0485625,2.059753569e-05
0.04858333333,1.931393854e-05
0.04860416667,1.278819309e-05
0.048625,7.024424576e-06
0.04864583333,7.638808711e-06
0.04866666667,1.480977608e-05
0.0486875,2.897842569e-05
0.04870833333,4.2214102e-05
0.04872916667,5.273323404e-05
0.04875,5.71277742e-05
0.04877083333,5.716487067e-05
0.04879166667,5.19189598e-05
0.0488125,4.336873099e-05
0.04883333333,3.212218144e-05
0.04885416667,2.067427704e-05
0.048875,1.485432767e-05
0.04889583333,1.590853935e-05
0.04891666667,2.036854494e-05
0.0489375,2.224033233e-05
0.04895833333,1.454809535e-05
0.04897916667,-2.466874321e-06
0.049,-2.147198938e-05
0.04902083333,-3.339018076e-05
0.04904166667,-3.305555583e-05
0.0490625,-1.902536314e-05
0.04908333333,2.353290256e-07
0.04910416667,1.8332943e-05
0.049125,3.123328861e-05
0.04914583333,4.142475518e-05
0.04916666667,4.914137025e-05
0.0491875,5.867415166e-05
0.04920833333,6.733576447e-05
0.04922916667,7.202931738e-05
0.04925,7.269995695e-05
0.04927083333,7.480278146e-05
0.04929166667,7.90481281e-05
0.0493125,8.365357644e-05
0.04933333333,8.386217814e-05
0.04935416667,7.735028339e-05
0.049375,6.09629642e-05
0.04939583333,4.143052502e-05
0.04941666667,2.457642404e-05
0.0494375,1.418032389e-05
0.04945833333,8.775724382e-06
0.04947916667,4.016006642e-06
0.0495,-2.130572284e-06
0.04952083333,-7.880498742e-06
0.04954166667,-1.034604793e-05
0.0495625,-6.174886039e-06
0.04958333333,1.126520146e-06
0.04960416667,1.185350447e-05
0.049625,1.881376738e-05
0.04964583333,2.394355215e-05
0.04966666667,2.78209609e-05
0.0496875,3.283270053e-05
0.04970833333,3.964852294e-05
0.04972916667,4.30666114e-05
0.04975,4.081778388e-05
0.04977083333,3.305561404e-05
0.04979166667,2.53011749e-05
0.0498125,2.424812374e-05
0.04983333333,2.905365182e-05
0.04985416667,4.00485078e-05
0.049875,5.05138014e-05
0.04989583333,6.029248107e-05
0.04991666667,6.462886086e-05
0.0499375,6.69839792e-05
0.04995833333,6.515389396e-05
0.04997916667,5.858175427e-05
0.05,4.881971836e-05
0.05002083333,3.779357939e-05
0.05004166667,3.061521056e-05
0.0500625,2.827591743e-05
0.05008333333,3.157611354e-05
0.05010416667,3.742888293e-05
0.050125,4.250870916e-05
0.05014583333,4.56688831e-05
0.05016666667,4.464347512e-05
0.0501875,4.279051427e-05
0.05020833333,3.989690958e-05
0.05022916667,3.821859718e-05
0.05025,3.726727664e-05
0.05027083333,3.874373579e-05
0.05029166667,4.016702223e-05
0.0503125,4.32893321e-05
0.05033333333,4.641883061e-05
0.05035416667,4.780162999e-05
0.050375,4.52801869e-05
0.05039583333,4.24371683e-05
0.05041666667,4.056693069e-05
0.0504375,4.364368942e-05
0.05045833333,5.168665666e-05
0.05047916667,5.979264824e-05
0.0505,6.157831376e-05
0.05052083333,5.695037908e-05
0.05054166667,4.617037484e-05
0.0505625,3.431238292e-05
0.05058333333,2.475496694e-05
0.05060416667,1.731899283e-05
0.050625,1.076122589e-05
0.05064583333,4.276841992e-06
0.05066666667,-5.371917382e-07
0.0506875,3.461869937e-07
0.05070833333,6.643937468e-06
0.05072916667,1.627889105e-05
0.05075,2.276220221e-05
0.05077083333,2.409336957e-05
0.05079166667,1.838133903e-05
0.0508125,1.079913272e-05
0.05083333333,6.900113021e-06
0.05085416667,8.704154425e-06
0.050875,1.441014047e-05
0.05089583333,1.981999594e-05
0.05091666667,1.877554132e-05
0.0509375,1.352211802e-05
0.05095833333,4.984724001e-06
0.05097916667,-1.33712922e-06
0.051,-5.452147889e-06
0.05102083333,-8.029966011e-06
0.05104166667,-1.026911741e-05
0.0510625,-1.326156871e-05
0.05108333333,-1.731775046e-05
0.05110416667,-1.826588596e-05
0.051125,-1.506988974e-05
0.05114583333,-8.393080861e-06
0.05116666667,-4.633540129e-07
0.0511875,6.222704087e-06
0.05120833333,1.017285103e-05
0.05122916667,1.313092343e-05
0.05125,1.403246824e-05
0.05127083333,1.453958703e-05
0.05129166667,1.388147302e-05
0.0513125,1.211067138e-05
0.05133333333,8.836684174e-06
0.05135416667,5.627170594e-06
0.051375,4.699094006e-06
0.05139583333,8.744400475e-06
0.05141666667,1.583183439e-05
0.0514375,2.383249011e-05
0.05145833333,2.795090586e-05
0.05147916667,2.821563976e-05
0.0515,2.434709677e-05
0.05152083333,2.182826393e-05
0.05154166667,2.024219975e-05
0.0515625,2.017971747e-05
0.05158333333,1.98781072e-05
0.05160416667,1.946671182e-05
0.051625,2.027702612e-05
0.05164583333,2.575502549e-05
0.05166666667,3.634178574e-05
0.0516875,5.220781168e-05
0.05170833333,6.879512512e-05
0.05172916667,8.345139941e-05
0.05175,9.36332217e-05
0.05177083333,9.908811626e-05
0.05179166667,0.0001005140948
0.0518125,9.973964188e-05
0.05183333333,9.526236681e-05
0.05185416667,8.677325241e-05
0.051875,7.572014874e-05
0.05189583333,6.481006858e-05
0.05191666667,5.733694707e-05
0.0519375,5.596270785e-05
0.05195833333,5.741407949e-05
0.05197916667,5.914807844e-05
0.052,5.730938938e-05
0.05202083333,5.443285045e-05
0.05204166667,5.097601388e-05
0.0520625,4.978247307e-05
0.05208333333,5.098430483e-05
0.05210416667,5.343263183e-05
0.052125,5.342909571e-05
0.05214583333,5.143928502e-05
0.05216666667,4.869189434e-05
0.0521875,4.90586026e-05
0.05220833333,5.230779061e-05
0.05222916667,5.791696822e-05
0.05225,6.07269285e-05
0.05227083333,6.221943477e-05
0.05229166667,6.23859014e-05
0.0523125,6.454515824e-05
0.05233333333,6.91631576e-05
0.05235416667,7.568173896e-05
0.052375,8.108315524e-05
0.05239583333,8.15583553e-05
0.05241666667,7.590477617e-05
0.0524375,6.687232235e-05
0.05245833333,5.710902406e-05
0.05247916667,5.245452121e-05
0.0525,5.273515853e-05
0.05252083333,5.613038957e-05
0.05254166667,5.910400796e-05
0.0525625,6.012524318e-05
0.05258333333,5.902033809e-05
0.05260416667,5.75463564e-05
0.052625,5.596198389e-05
0.05264583333,5.434173363e-05
0.05266666667,5.047852756e-05
0.0526875,4.335154517e-05
0.05270833333,3.24594439e-05
0.05272916667,2.177416718e-05
0.05275,1.47286828e-05
0.05277083333,1.397250435e-05
0.05279166667,1.755648918e-05
0.0528125,2.257843516e-05
0.05283333333,2.532118742e-05
0.05285416667,2.484163088e-05
0.052875,2.441455217e-05
0.05289583333,2.634357588e-05
0.05291666667,3.150541306e-05
0.0529375,3.867095438e-05
0.05295833333,4.074779281e-05
0.05297916667,3.531276161e-05
0.053,2.323638182e-05
0.05302083333,9.552511983e-06
0.05304166667,7.163444593e-07
0.0530625,-3.652063185e-07
0.05308333333,3.127192258e-06
0.05310416667,5.578020591e-06
0.053125,3.080155238e-06
0.05314583333,-2.554863386e-06
0.05316666667,-6.045058399e-06
0.0531875,-3.01355476e-06
0.05320833333,6.90480465e-06
0.05322916667,1.788964437e-05
0.05325,2.161050543e-05
0.05327083333,1.700230314e-05
0.05329166667,6.624851721e-06
0.0533125,-2.33985611e-06
0.05333333333,-6.761255008e-06
0.05335416667,-6.81387246e-06
0.053375,-6.082158507e-06
0.05339583333,-6.983912954e-06
0.05341666667,-1.058035741e-05
0.0534375,-1.237692322e-05
0.05345833333,-9.590041373e-06
0.05347916667,-1.617552243e-06
0.0535,8.076626727e-06
0.05352083333,1.679910747e-05
0.05354166667,2.163998033e-05
0.0535625,2.130004032e-05
0.05358333333,1.671773316e-05
0.05360416667,1.171616896e-05
0.053625,8.830276784e-06
0.05364583333,1.141495341e-05
0.05366666667,1.917007648e-05
0.0536875,2.977362965e-05
0.05370833333,3.863132588e-05
0.05372916667,4.230683771e-05
0.05375,3.956740329e-05
0.05377083333,3.549941175e-05
0.05379166667,3.479381121e-05
0.0538125,3.831028516e-05
0.05383333333,4.322429231e-05
0.05385416667,4.426623491e-05
0.053875,3.985148942e-05
0.05389583333,3.432781887e-05
0.05391666667,3.249514702e-05
0.0539375,3.792707139e-05
0.05395833333,4.698194607e-05
0.05397916667,5.227402653e-05
0.054,4.783237455e-05
0.05402083333,3.446407936e-05
0.05404166667,2.172968198e-05
0.0540625,1.88927861e-05
0.05408333333,2.887593291e-05
0.05410416667,4.484420788e-05
0.054125,5.805443288e-05
0.05414583333,6.54070318e-05
0.05416666667,7.035121234e-05
0.0541875,7.789306255e-05
0.05420833333,8.880714449e-05
0.05422916667,9.919861623e-05
0.05425,0.0001018309558
0.05427083333,9.339595999e-05
0.05429166667,7.680703857e-05
0.0543125,6.183059304e-05
0.05433333333,5.446272189e-05
0.05435416667,5.517568934e-05
0.054375,5.886838699e-05
0.05439583333,6.088658483e-05
0.05441666667,6.083309199e-05
0.0544375,6.350041804e-05
0.05445833333,7.08031439e-05
0.05447916667,7.890806592e-05
0.0545,7.985162665e-05
0.05452083333,6.837151159e-05
0.05454166667,4.806403012e-05
0.0545625,2.920179213e-05
0.05458333333,2.086955647e-05
0.05460416667,2.385151856e-05
0.054625,3.158818072e-05
0.05464583333,3.647570338e-05
0.05466666667,3.530383765e-05
0.0546875,3.398071203e-05
0.05470833333,4.005135997e-05
0.05472916667,5.480411346e-05
0.05475,7.048734551e-05
0.05477083333,7.54607463e-05
0.05479166667,6.476626731e-05
0.0548125,4.446159437e-05
0.05483333333,3.022064629e-05
0.05485416667,3.283625847e-05
0.054875,5.08884259e-05
0.05489583333,7.144767733e-05
0.05491666667,8.029051969e-05
0.0549375,7.388587983e-05
0.05495833333,5.951175626e-05
0.05497916667,4.925874964e-05
0.055,4.871805504e-05
0.05502083333,5.38203094e-05
0.05504166667,5.441666872e-05
0.0550625,4.59297371e-05
0.05508333333,3.036505223e-05
0.05510416667,1.721639092e-05
0.055125,1.450882428e-05
0.05514583333,2.323341505e-05
0.05516666667,3.597778414e-05
0.0551875,4.397617522e-05
0.05520833333,4.180577889e-05
0.05522916667,3.195948011e-05
0.05525,2.126855543e-05
0.05527083333,1.482771404e-05
0.05529166667,1.254083327e-05
0.0553125,1.033153967e-05
0.05533333333,4.332431672e-06
0.05535416667,-5.71354667e-06
0.055375,-1.487766986e-05
0.05539583333,-1.810470894e-05
0.05541666667,-1.289739612e-05
0.0554375,-1.56747717e-07
0.05545833333,1.452086963e-05
0.05547916667,2.555831088e-05
0.0555,2.906417103e-05
0.05552083333,2.521735951e-05
0.05554166667,1.688424891e-05
0.0555625,7.227883088e-06
0.05558333333,-7.994564726e-07
0.05560416667,-6.446822681e-06
0.055625,-1.027168673e-05
0.05564583333,-1.277599858e-05
0.05566666667,-1.385189807e-05
0.0556875,-1.201286977e-05
0.05570833333,-6.217817372e-06
0.05572916667,3.588349955e-06
0.05575,1.531385715e-05
0.05577083333,2.454761125e-05
0.05579166667,2.618457074e-05
0.0558125,1.971548409e-05
0.05583333333,9.691292689e-06
0.05585416667,-4.644507499e-07
0.055875,-8.239717317e-06
0.05589583333,-1.377993067e-05
0.05591666667,-1.681949288e-05
0.0559375,-1.828744462e-05
0.05595833333,-1.868150503e-05
0.05597916667,-1.826385596e-05
0.056,-1.678764784e-05
0.05602083333,-1.286073984e-05
0.05604166667,-7.736774933e-06
0.0560625,-2.756348067e-06
0.05608333333,6.644109476e-07
0.05610416667,3.191556743e-06
0.056125,3.051974772e-06
0.05614583333,-2.205738667e-07
0.05616666667,-4.646953585e-06
0.0561875,-7.888559594e-06
0.05620833333,-7.684963748e-06
0.05622916667,-5.157908163e-06
0.05625,-2.440815024e-06
0.05627083333,-1.002483486e-06
0.05629166667,2.667128172e-07
0.0563125,4.350341442e-06
0.05633333333,1.25696497e-05
0.05635416667,2.385387597e-05
0.056375,3.529913374e-05
0.05639583333,4.328655268e-05
0.05641666667,4.593197082e-05
0.0564375,4.428942702e-05
0.05645833333,4.081185034e-05
0.05647916667,3.841436046e-05
0.0565,3.755975195e-05
0.05652083333,3.604709491e-05
0.05654166667,3.181479042e-05
0.0565625,2.445979953e-05
0.05658333333,1.719808279e-05
0.05660416667,1.545572923e-05
0.056625,2.207418765e-05
0.05664583333,3.575723895e-05
0.05666666667,5.31319929e-05
0.0566875,6.740847311e-05
0.05670833333,7.37901355e-05
0.05672916667,7.099851064e-05
0.05675,6.261076487e-05
0.05677083333,5.266931475e-05
0.05679166667,4.246475874e-05
0.0568125,3.220959115e-05
0.05683333333,2.114820199e-05
0.05685416667,9.97495863e-06
0.056875,-1.184952225e-07
0.05689583333,-4.096809789e-06
0.05691666667,-1.011950346e-07
0.0569375,1.05697718e-05
0.05695833333,2.437268085e-05
0.05697916667,3.359225593e-05
0.057,3.279529847e-05
0.05702083333,2.10437338e-05
0.05704166667,4.008743872e-06
0.0570625,-9.247533853e-06
0.05708333333,-1.525779135e-05
0.05710416667,-1.50772803e-05
0.057125,-1.565470484e-05
0.05714583333,-2.417610631e-05
0.05716666667,-3.812350405e-05
0.0571875,-5.011319809e-05
0.05720833333,-5.070690531e-05
0.05722916667,-3.644603203e-05
0.05725,-1.793081901e-05
0.05727083333,-7.73247757e-06
0.05729166667,-1.166291713e-05
0.0573125,-2.670830327e-05
0.05733333333,-3.961502807e-05
0.05735416667,-4.132238973e-05
0.057375,-3.168092735e-05
0.05739583333,-2.155177754e-05
0.05741666667,-2.252389459e-05
0.0574375,-3.633007145e-05
0.05745833333,-5.507283277e-05
0.05747916667,-6.566778757e-05
0.0575,-6.205569662e-05
0.05752083333,-4.947349953e-05
0.05754166667,-3.789567927e-05
0.0575625,-3.596898387e-05
0.05758333333,-4.281750444e-05
0.05760416667,-4.946488843e-05
0.057625,-4.881576751e-05
0.05764583333,-3.919381197e-05
0.05766666667,-2.777842747e-05
0.0576875,-2.449887143e-05
0.05770833333,-3.273040784e-05
0.05772916667,-4.735618495e-05
0.05775,-5.927618986e-05
0.05777083333,-6.295124331e-05
0.05779166667,-6.040835069e-05
0.0578125,-5.640630116e-05
0.05783333333,-5.52556121e-05
0.05785416667,-5.756520113e-05
0.057875,-5.936421076e-05
0.05789583333,-5.770305143e-05
0.05791666667,-5.139602945e-05
0.0579375,-4.337513383e-05
0.05795833333,-3.785082663e-05
0.05797916667,-3.593412839e-05
0.058,-3.798501712e-05
0.05802083333,-4.376614743e-05
0.05804166667,-5.29513236e-05
0.0580625,-6.387288158e-05
0.05808333333,-7.383504999e-05
0.05810416667,-7.985481352e-05
0.058125,-7.941682998e-05
0.05814583333,-7.358111907e-05
0.05816666667,-6.485155609e-05
0.0581875,-5.720469198e-05
0.05820833333,-5.157295527e-05
0.05822916667,-4.702173101e-05
0.05825,-4.197750604e-05
0.05827083333,-3.705088238e-05
0.05829166667,-3.58620855e-05
0.0583125,-4.161335528e-05
0.05833333333,-5.311642599e-05
0.05835416667,-6.485359336e-05
0.058375,-7.064549573e-05
0.05839583333,-6.770860637e-05
0.05841666667,-5.827718996e-05
0.0584375,-4.696078031e-05
0.05845833333,-3.43438187e-05
0.05847916667,-2.196360583e-05
0.0585,-1.226906807e-05
0.05852083333,-3.834984e-06
0.05854166667,2.296663752e-06
0.0585625,4.485471436e-06
0.05858333333,1.654007178e-06
0.05860416667,-3.645779088e-06
0.058625,-7.087975519e-06
0.05864583333,-6.009902791e-06
0.05866666667,-1.779481067e-06
0.0586875,2.282400601e-06
0.05870833333,6.248806585e-06
0.05872916667,1.11420477e-05
0.05875,1.903014345e-05
0.05877083333,2.908480201e-05
0.05879166667,3.642154843e-05
0.0588125,3.819648191e-05
0.05883333333,3.152511636e-05
0.05885416667,2.084708467e-05
0.058875,1.437272385e-05
0.05889583333,1.517704732e-05
0.05891666667,2.094700721e-05
0.0589375,2.702317033e-05
0.05895833333,2.95273403e-05
0.05897916667,2.814361505e-05
0.059,2.587260497e-05
0.05902083333,2.567503907e-05
0.05904166667,2.832427344e-05
0.0590625,3.195238969e-05
0.05908333333,3.076008579e-05
0.05910416667,2.36441083e-05
0.059125,1.448103194e-05
0.05914583333,1.012312623e-05
0.05916666667,1.636002889e-05
0.0591875,3.278229269e-05
0.05920833333,5.12667757e-05
0.05922916667,6.012960148e-05
0.05925,5.517544923e-05
0.05927083333,4.122834434e-05
0.05929166667,2.73530386e-05
0.0593125,2.02150386e-05
0.05933333333,1.668077493e-05
0.05935416667,1.101695216e-05
0.059375,1.734821353e-06
0.05939583333,-8.730309673e-06
0.05941666667,-1.408454409e-05
0.0594375,-9.496938219e-06
0.05945833333,3.503517291e-06
0.05947916667,1.636716661e-05
0.0595,1.91957497e-05
0.05952083333,5.798955954e-06
0.05954166667,-1.943739699e-05
0.0595625,-4.454174268e-05
0.05958333333,-6.064660556e-05
0.05960416667,-6.633505109e-05
0.059625,-6.730177847e-05
0.05964583333,-7.024324441e-05
0.05966666667,-7.668935723e-05
0.0596875,-8.262675692e-05
0.05970833333,-8.198465366e-05
0.05972916667,-7.388610538e-05
0.05975,-6.335333455e-05
0.05977083333,-5.963964941e-05
0.05979166667,-7.107706188e-05
0.0598125,-9.602658247e-05
0.05983333333,-0.0001241827122
0.05985416667,-0.0001433245488
0.059875,-0.0001466655085
0.05989583333,-0.0001383896742
0.05991666667,-0.000128888496
0.0599375,-0.0001258322154
0.05995833333,-0.0001294177491
0.05997916667,-0.0001327990758
0.06,-0.0001287603372
0.06002083333,-0.0001173201235
0.06004166667,-0.0001075723922
0.0600625,-0.000109826251
0.06008333333,-0.0001276959956
0.06010416667,-0.0001524448744
0.060125,-0.0001705778704
0.06014583333,-0.0001726754417
0.06016666667,-0.0001608475432
0.0601875,-0.0001446061651
0.06020833333,-0.000133725116
0.06022916667,-0.0001320136362
0.06025,-0.0001336877031
0.06027083333,-0.0001303639146
0.06029166667,-0.0001190313196
0.0603125,-0.0001052629013
0.06033333333,-9.738568042e-05
0.06035416667,-0.000100694313
0.060375,-0.0001131761746
0.06039583333,-0.0001258436096
0.06041666667,-0.0001299193391
0.0604375,-0.0001202100029
0.06045833333,-0.0001002979625
0.06047916667,-7.943028322e-05
0.0605,-6.527887308e-05
0.06052083333,-6.082777691e-05
0.06054166667,-6.172158464e-05
0.0605625,-6.051974196e-05
0.06058333333,-5.40853398e-05
0.06060416667,-4.407183587e-05
0.060625,-3.632185326e-05
0.06064583333,-3.430570723e-05
0.06066666667,-3.836571341e-05
0.0606875,-4.335730773e-05
0.06070833333,-4.477695256e-05
0.06072916667,-4.070673822e-05
0.06075,-3.070806997e-05
0.06077083333,-2.008208685e-05
0.06079166667,-1.294180765e-05
0.0608125,-1.281061577e-05
0.06083333333,-1.724094363e-05
0.06085416667,-2.031710756e-05
0.060875,-1.831528425e-05
0.06089583333,-1.168557174e-05
0.06091666667,-7.052946785e-06
0.0609375,-9.279300684e-06
0.06095833333,-1.753536344e-05
0.06097916667,-2.637281432e-05
0.061,-2.936416422e-05
0.06102083333,-2.398754805e-05
0.06104166667,-1.278877244e-05
0.0610625,-1.474470082e-06
0.06108333333,4.803116099e-06
0.06110416667,5.380037692e-06
0.061125,3.689282039e-06
0.06114583333,4.384102795e-06
0.06116666667,8.104672816e-06
0.0611875,1.182553024e-05
0.06120833333,1.232631166e-05
0.06122916667,9.063746802e-06
0.06125,5.161024546e-06
0.06127083333,3.329644187e-06
0.06129166667,4.576594165e-06
0.0613125,5.928617611e-06
0.06133333333,4.983512099e-06
0.06135416667,1.368184257e-06
0.061375,-1.550495654e-06
0.06139583333,-4.589761033e-07
0.06141666667,3.525385864e-06
0.0614375,5.920301646e-06
0.06145833333,2.552475962e-06
0.06147916667,-5.17225908e-06
0.0615,-1.229278314e-05
0.06152083333,-1.357953442e-05
0.06154166667,-1.031046122e-05
0.0615625,-8.72982946e-06
0.06158333333,-1.488468388e-05
0.06160416667,-2.883411253e-05
0.061625,-4.287391857e-05
0.06164583333,-4.890326818e-05
0.06166666667,-4.543863179e-05
0.0616875,-3.706760981e-05
0.06170833333,-3.12889897e-05
0.06172916667,-3.241106606e-05
0.06175,-3.767188537e-05
0.06177083333,-3.924080011e-05
0.06179166667,-3.406989708e-05
0.0618125,-2.654485615e-05
0.06183333333,-2.550410318e-05
0.06185416667,-3.757324885e-05
0.061875,-5.834478725e-05
0.06189583333,-7.857877063e-05
0.06191666667,-8.877750224e-05
0.0619375,-8.734312723e-05
0.06195833333,-8.029907622e-05
0.06197916667,-7.355828711e-05
0.062,-7.01427125e-05
0.06202083333,-6.74292387e-05
0.06204166667,-6.052661774e-05
0.0620625,-4.9548471e-05
0.06208333333,-4.170620741e-05
0.06210416667,-4.36421833e-05
0.062125,-5.669156235e-05
0.06214583333,-7.331559755e-05
0.06216666667,-8.464336133e-05
0.0621875,-8.672651165e-05
0.06220833333,-8.313037688e-05
0.06222916667,-7.999355148e-05
0.06225,-7.904349332e-05
0.06227083333,-7.570969319e-05
0.06229166667,-6.504693738e-05
0.0623125,-4.766651182e-05
0.06233333333,-3.219580685e-05
0.06235416667,-2.718643191e-05
0.062375,-3.50776354e-05
0.06239583333,-5.013245755e-05
0.06241666667,-6.237906928e-05
0.0624375,-6.528036465e-05
0.06245833333,-6.029714132e-05
0.06247916667,-5.472352859e-05
0.0625,-5.511483323e-05
0.06252083333,-6.079237573e-05
0.06254166667,-6.496026617e-05
0.0625625,-6.161093916e-05
0.06258333333,-5.199995576e-05
0.06260416667,-4.257420005e-05
0.062625,-4.020471533e-05
0.06264583333,-4.63391516e-05
0.06266666667,-5.601828161e-05
0.0626875,-6.144250074e-05
0.06270833333,-5.720478293e-05
0.06272916667,-4.641712803e-05
0.06275,-3.715213461e-05
0.06277083333,-3.544273204e-05
0.06279166667,-4.122934115e-05
0.0628125,-4.881016503e-05
0.06283333333,-5.294290895e-05
0.06285416667,-5.210875315e-05
0.062875,-4.880297638e-05
0.06289583333,-4.628109673e-05
0.06291666667,-4.41176453e-05
0.0629375,-3.99002638e-05
0.06295833333,-3.199845742e-05
0.06297916667,-2.163641329e-05
0.063,-1.214061467e-05
0.06302083333,-6.396737263e-06
0.06304166667,-5.668111498e-06
0.0630625,-9.862096704e-06
0.06308333333,-1.83332686e-05
0.06310416667,-2.887542541e-05
0.063125,-3.953306077e-05
0.06314583333,-4.8490052e-05
0.06316666667,-5.309250628e-05
0.0631875,-5.061172851e-05
0.06320833333,-4.166451981e-05
0.06322916667,-3.01193013e-05
0.06325,-1.937265188e-05
0.06327083333,-1.338584207e-05
0.06329166667,-1.337308731e-05
0.0633125,-1.810116555e-05
0.06333333333,-2.492738895e-05
0.06335416667,-3.275625568e-05
0.063375,-4.22706471e-05
0.06339583333,-5.404913463e-05
0.06341666667,-6.573116116e-05
0.0634375,-7.195024227e-05
0.06345833333,-6.94146147e-05
0.06347916667,-5.855815471e-05
0.0635,-4.317957791e-05
0.06352083333,-2.925265289e-05
0.06354166667,-2.106880493e-05
0.0635625,-1.926324148e-05
0.06358333333,-2.02948595e-05
0.06360416667,-2.118632801e-05
0.063625,-2.167010098e-05
0.06364583333,-2.309982665e-05
0.06366666667,-2.68855365e-05
0.0636875,-3.313737034e-05
0.06370833333,-4.000525951e-05
0.06372916667,-4.403853018e-05
0.06375,-4.257844193e-05
0.06377083333,-3.537099838e-05
0.06379166667,-2.57835618e-05
0.0638125,-1.806773253e-05
0.06383333333,-1.417890053e-05
0.06385416667,-1.501931729e-05
0.063875,-1.72905784e-05
0.06389583333,-1.844024155e-05
0.06391666667,-1.844094186e-05
0.0639375,-1.89241764e-05
0.06395833333,-2.331727592e-05
0.06397916667,-3.187323091e-05
0.064,-4.135575728e-05
0.06402083333,-4.842234921e-05
0.06404166667,-4.847902892e-05
0.0640625,-4.204174911e-05
0.06408333333,-3.337538146e-05
0.06410416667,-2.677744851e-05
0.064125,-2.361260886e-05
0.06414583333,-2.12102841e-05
0.06416666667,-1.772434553e-05
0.0641875,-1.161788987e-05
0.06420833333,-6.583998129e-06
0.06422916667,-6.065570233e-06
0.06425,-1.162289118e-05
0.06427083333,-1.967671597e-05
0.06429166667,-2.499718175e-05
0.0643125,-2.476022746e-05
0.06433333333,-2.104330815e-05
0.06435416667,-1.788060217e-05
0.064375,-1.766590685e-05
0.06439583333,-1.911906293e-05
0.06441666667,-1.971338315e-05
0.0644375,-1.843539212e-05
0.06445833333,-1.638043068e-05
0.06447916667,-1.592198896e-05
0.0645,-1.895951573e-05
0.06452083333,-2.558372944e-05
0.06454166667,-3.238792124e-05
0.0645625,-3.531841139e-05
0.06458333333,-3.435856343e-05
0.06460416667,-3.291590838e-05
0.064625,-3.495479177e-05
0.06464583333,-4.044812522e-05
0.06466666667,-4.626901864e-05
0.0646875,-4.938961138e-05
0.06470833333,-4.871929559e-05
0.06472916667,-4.725129111e-05
0.06475,-4.664366497e-05
0.06477083333,-4.779864321e-05
0.06479166667,-4.868653923e-05
0.0648125,-4.671693023e-05
0.06483333333,-4.194462963e-05
0.06485416667,-3.589938569e-05
0.064875,-3.167941031e-05
0.06489583333,-3.188195478e-05
0.06491666667,-3.570611807e-05
0.0649375,-3.955427383e-05
0.06495833333,-4.214902583e-05
0.06497916667,-4.434031507e-05
0.065,-4.750254084e-05
0.06502083333,-5.01561226e-05
0.06504166667,-4.939491555e-05
0.0650625,-4.32275192e-05
0.06508333333,-3.342504715e-05
0.06510416667,-2.451637192e-05
0.065125,-2.044329449e-05
0.06514583333,-2.151539775e-05
0.06516666667,-2.618743019e-05
0.0651875,-2.953317016e-05
0.06520833333,-2.979550482e-05
0.06522916667,-2.981605212e-05
0.06525,-3.245515109e-05
0.06527083333,-3.80866004e-05
0.06529166667,-4.209956023e-05
0.0653125,-3.986179581e-05
0.06533333333,-3.12069933e-05
0.06535416667,-2.085390042e-05
0.065375,-1.344253633e-05
0.06539583333,-1.092675211e-05
0.06541666667,-1.069812333e-05
0.0654375,-9.026647604e-06
0.06545833333,-4.330382581e-06
0.06547916667,9.492012509e-07
0.0655,2.465739271e-06
0.06552083333,-2.22943504e-06
0.06554166667,-1.119905119e-05
0.0655625,-1.767789036e-05
0.06558333333,-1.743445137e-05
0.06560416667,-1.146421982e-05
0.065625,-3.946346169e-06
0.06564583333,6.009788081e-07
0.06566666667,2.728557774e-06
0.0656875,5.333765785e-06
0.06570833333,1.019078172e-05
0.06572916667,1.577764669e-05
0.06575,1.892304863e-05
0.06577083333,1.684595918e-05
0.06579166667,9.36062861e-06
0.0658125,1.153744051e-06
0.06583333333,-3.933004336e-06
0.06585416667,-4.789714239e-06
0.065875,-2.756441745e-06
0.06589583333,-1.269281711e-06
0.06591666667,-1.119172566e-06
0.0659375,2.023438412e-07
0.06595833333,4.709667792e-06
0.06597916667,1.264716866e-05
0.066,2.046114059e-05
0.06602083333,2.373769894e-05
0.06604166667,2.015864629e-05
0.0660625,1.163163597e-05
0.06608333333,4.043778972e-06
0.06610416667,9.21776973e-07
0.066125,1.076294325e-06
0.06614583333,1.214538997e-06
0.06616666667,-1.543025689e-07
0.0661875,-1.656430072e-06
0.06620833333,3.59309027e-08
0.06622916667,5.929917734e-06
0.06625,1.276379862e-05
0.06627083333,1.560890632e-05
0.06629166667,1.084690848e-05
0.0663125,1.953160904e-07
0.06633333333,-1.058936596e-05
0.06635416667,-1.710091237e-05
0.066375,-1.907776459e-05
0.06639583333,-1.960171903e-05
0.06641666667,-2.140616198e-05
0.0664375,-2.323230001e-05
0.06645833333,-2.230420978e-05
0.06647916667,-1.800397331e-05
0.0665,-1.161420187e-05
0.06652083333,-7.201709195e-06
0.06654166667,-8.229177183e-06
0.0665625,-1.438767868e-05
0.06658333333,-2.241902621e-05
0.06660416667,-2.836857493e-05
0.066625,-3.059202936e-05
0.06664583333,-2.963415864e-05
0.06666666667,-2.753533408e-05
0.0666875,-2.43741797e-05
0.06670833333,-1.871262248e-05
0.06672916667,-9.629363376e-06
0.06675,1.21723383e-06
0.06677083333,9.668322491e-06
0.06679166667,1.171412623e-05
0.0668125,6.80903122e-06
0.06683333333,-9.690662637e-07
0.06685416667,-7.254599041e-06
0.066875,-1.074489137e-05
0.06689583333,-1.253086793e-05
0.06691666667,-1.527741915e-05
0.0669375,-1.8364075e-05
0.06695833333,-1.835722287e-05
0.06697916667,-1.246438478e-05
0.067,-7.701675031e-07
0.06702083333,1.170746145e-05
0.06704166667,1.842824713e-05
0.0670625,1.686355063e-05
0.06708333333,9.893252354e-06
0.06710416667,3.29197087e-06
0.067125,-1.809241894e-07
0.06714583333,-2.123899321e-06
0.06716666667,-6.533570286e-06
0.0671875,-1.393520961e-05
0.06720833333,-1.907227488e-05
0.06722916667,-1.761727617e-05
0.06725,-7.493370958e-06
0.06727083333,8.432562026e-06
0.06729166667,2.335869067e-05
0.0673125,3.207332702e-05
0.06733333333,3.368335092e-05
0.06735416667,3.040954834e-05
0.067375,2.836891508e-05
0.06739583333,2.831065831e-05
0.06741666667,2.682565355e-05
0.0674375,2.176505404e-05
0.06745833333,1.470238294e-05
0.06747916667,9.57915654e-06
0.0675,1.018180319e-05
0.06752083333,1.828219501e-05
0.06754166667,3.005855251e-05
0.0675625,3.918792936e-05
0.06758333333,4.302259913e-05
0.06760416667,4.290599099e-05
0.067625,4.173793786e-05
0.06764583333,4.203384742e-05
0.06766666667,4.215766603e-05
0.0676875,3.835645839e-05
0.06770833333,2.91352917e-05
0.06772916667,1.769175105e-05
0.06775,9.542378393e-06
0.06777083333,8.63299374e-06
0.06779166667,1.474631517e-05
0.0678125,2.286866766e-05
0.06783333333,2.729377047e-05
0.06785416667,2.707970452e-05
0.067875,2.549436249e-05
0.06789583333,2.713079448e-05
0.06791666667,3.298822412e-05
0.0679375,3.882920282e-05
0.06795833333,3.937200745e-05
0.06797916667,3.243726314e-05
0.068,2.069304173e-05
0.06802083333,1.117871216e-05
0.06804166667,8.866581084e-06
0.0680625,1.285085546e-05
0.06808333333,1.727782728e-05
0.06810416667,1.716091356e-05
0.068125,1.254243398e-05
0.06814583333,8.163200619e-06
0.06816666667,9.899255019e-06
0.0681875,1.894688648e-05
0.06820833333,3.043687502e-05
0.06822916667,3.730664685e-05
0.06825,3.575337178e-05
0.06827083333,2.81540506e-05
0.06829166667,2.06603072e-05
0.0683125,1.784072447e-05
0.06833333333,1.932971463e-05
0.06835416667,2.114633389e-05
0.068375,1.833049828e-05
0.06839583333,1.095592688e-05
0.06841666667,3.754222234e-06
0.0684375,3.417054359e-06
0.06845833333,1.415599581e-05
0.06847916667,3.10547548e-05
0.0685,4.531729428e-05
0.06852083333,5.181798042e-05
0.06854166667,5.140343637e-05
0.0685625,4.738182542e-05
0.06858333333,4.371827526e-05
0.06860416667,4.207011079e-05
0.068625,4.102434832e-05
0.06864583333,3.846518302e-05
0.06866666667,3.333992572e-05
0.0686875,2.775890061e-05
0.06870833333,2.47548378e-05
0.06872916667,2.618575309e-05
0.06875,3.234696851e-05
0.06877083333,3.997146632e-05
0.06879166667,4.548924699e-05
0.0688125,4.640352563e-05
0.06883333333,4.240164344e-05
0.06885416667,3.587492756e-05
0.068875,2.962905455e-05
0.06889583333,2.542267976e-05
0.06891666667,2.261176087e-05
0.0689375,1.946800876e-05
0.06895833333,1.495520246e-05
0.06897916667,9.943831174e-06
0.069,6.551702882e-06
0.06902083333,6.674712495e-06
0.06904166667,1.051282743e-05
0.0690625,1.677337423e-05
0.06908333333,2.188552571e-05
0.06910416667,2.307261093e-05
0.069125,2.009618402e-05
0.06914583333,1.561416684e-05
0.06916666667,1.37411007e-05
0.0691875,1.50079195e-05
0.06920833333,1.826380685e-05
0.06922916667,2.05551878e-05
0.06925,1.965440606e-05
0.06927083333,1.765845627e-05
0.06929166667,1.64530029e-05
0.0693125,1.952208913e-05
0.06933333333,2.536808825e-05
0.06935416667,3.033175926e-05
0.069375,3.255208139e-05
0.06939583333,3.09924726e-05
0.06941666667,2.87192197e-05
0.0694375,2.83687732e-05
0.06945833333,3.020537042e-05
0.06947916667,3.21972002e-05
0.0695,3.107124212e-05
0.06952083333,2.647149813e-05
0.06954166667,2.074414988e-05
0.0695625,1.750285992e-05
0.06958333333,1.870208871e-05
0.06960416667,2.20195252e-05
0.069625,2.381918603e-05
0.06964583333,2.241350739e-05
0.06966666667,1.922933188e-05
0.0696875,1.726300252e-05
0.06970833333,1.843152131e-05
0.06972916667,2.199191113e-05
0.06975,2.499065522e-05
0.06977083333,2.520768976e-05
0.06979166667,2.324744673e-05
0.0698125,2.146429688e-05
0.06983333333,2.190927808e-05
0.06985416667,2.46662803e-05
0.069875,2.770470564e-05
0.06989583333,2.807107739e-05
0.06991666667,2.601950291e-05
0.0699375,2.383295941e-05
0.06995833333,2.448757914e-05
0.06997916667,2.820749978e-05
0.07,3.254900003e-05
0.07002083333,3.519099118e-05
0.07004166667,3.499971353e-05
0.0700625,3.348869359e-05
0.07008333333,3.260778612e-05
0.07010416667,3.31598203e-05
0.070125,3.445470793e-05
0.07014583333,3.427022966e-05
0.07016666667,3.200221545e-05
0.0701875,2.877178486e-05
0.07020833333,2.624906483e-05
0.07022916667,2.565365503e-05
0.07025,2.610404044e-05
0.07027083333,2.676285658e-05
0.07029166667,2.691881309e-05
0.0703125,2.660293103e-05
0.07033333333,2.655891512e-05
0.07035416667,2.682810009e-05
0.070375,2.646296889e-05
0.07039583333,2.514691732e-05
0.07041666667,2.299400694e-05
0.0704375,2.129717541e-05
0.07045833333,2.115668212e-05
0.07047916667,2.253385537e-05
0.0705,2.40771551e-05
0.07052083333,2.437305375e-05
0.07054166667,2.361859333e-05
0.0705625,2.306339411e-05
0.07058333333,2.393247269e-05
0.07060416667,2.604395195e-05
0.070625,2.693136776e-05
0.07064583333,2.497583228e-05
0.07066666667,2.105725071e-05
0.0706875,1.800557948e-05
0.07070833333,1.785652421e-05
0.07072916667,2.027809387e-05
0.07075,2.314802623e-05
0.07077083333,2.389194015e-05
0.07079166667,2.203965414e-05
0.0708125,1.909013554e-05
0.07083333333,1.722087291e-05
0.07085416667,1.735239493e-05
0.070875,1.810573667e-05
0.07089583333,1.687605254e-05
0.07091666667,1.266294385e-05
0.0709375,7.24578922e-06
0.07095833333,4.187673312e-06
0.07097916667,5.465724826e-06
0.071,1.043658449e-05
0.07102083333,1.553621041e-05
0.07104166667,1.750777119e-05
0.0710625,1.616582995e-05
0.07108333333,1.396354673e-05
0.07110416667,1.354559481e-05
0.071125,1.504124612e-05
0.07114583333,1.612405867e-05
0.07116666667,1.41853161e-05
0.0711875,9.003807463e-06
0.07120833333,3.796854799e-06
0.07122916667,2.158133384e-06
0.07125,5.464553396e-06
0.07127083333,1.149034233e-05
0.07129166667,1.641642666e-05
0.0713125,1.808341767e-05
0.07133333333,1.718968088e-05
0.07135416667,1.64226567e-05
0.071375,1.745872396e-05
0.07139583333,1.935660657e-05
0.07141666667,1.982156391e-05
0.0714375,1.714989412e-05
0.07145833333,1.221477032e-05
0.07147916667,7.890101188e-06
0.0715,6.47575007e-06
0.07152083333,8.183774298e-06
0.07154166667,1.130266719e-05
0.0715625,1.339437313e-05
0.07158333333,1.389571025e-05
0.07160416667,1.367060577e-05
0.071625,1.450730633e-05
0.07164583333,1.674245868e-05
0.07166666667,1.86382731e-05
0.0716875,1.903766497e-05
0.07170833333,1.779641934e-05
0.07172916667,1.57250779e-05
0.07175,1.400379642e-05
0.07177083333,1.294591766e-05
0.07179166667,1.285064536e-05
0.0718125,1.310381413e-05
0.07183333333,1.353308744e-05
0.07185416667,1.445156977e-05
0.071875,1.628216523e-05
0.07189583333,1.873317706e-05
0.07191666667,2.072244388e-05
0.0719375,2.151959961e-05
0.07195833333,2.12963896e-05
0.07197916667,2.085171582e-05
0.072,2.070750452e-05
0.07202083333,2.074968143e-05
0.07204166667,2.009154559e-05
0.0720625,1.840398727e-05
0.07208333333,1.637576315e-05
0.07210416667,1.580116987e-05
0.072125,1.722948036e-05
0.07214583333,1.984215669e-05
0.07216666667,2.250627222e-05
0.0721875,2.40600657e-05
0.07220833333,2.463984674e-05
0.07222916667,2.526232674e-05
0.07225,2.657951882e-05
0.07227083333,2.844763003e-05
0.07229166667,2.95686641e-05
0.0723125,2.894783574e-05
0.07233333333,2.667752779e-05
0.07235416667,2.414349728e-05
0.072375,2.292770296e-05
0.07239583333,2.320087515e-05
0.07241666667,2.427583968e-05
0.0724375,2.526921526e-05
0.07245833333,2.59898643e-05
0.07247916667,2.651225259e-05
0.0725,2.716277413e-05
0.07252083333,2.785140168e-05
0.07254166667,2.822225179e-05
0.0725625,2.781034163e-05
0.07258333333,2.623967885e-05
0.07260416667,2.418944496e-05
0.072625,2.239916466e-05
0.07264583333,2.0946316e-05
0.07266666667,1.971895836e-05
0.0726875,1.843190512e-05
0.07270833333,1.695126957e-05
0.07272916667,1.553191214e-05
0.07275,1.477492242e-05
0.07277083333,1.499159316e-05
0.07279166667,1.560750388e-05
0.0728125,1.591397995e-05
0.07283333333,1.514262294e-05
0.07285416667,1.362161584e-05
0.072875,1.224027164e-05
0.07289583333,1.156361031e-05
0.07291666667,1.110983885e-05
0.0729375,1.029802206e-05
0.07295833333,8.700516446e-06
0.07297916667,6.56385555e-06
0.073,4.881322184e-06
0.07302083333,4.272499609e-06
0.07304166667,4.476882168e-06
0.0730625,4.668384918e-06
0.07308333333,4.250588518e-06
0.07310416667,3.414160119e-06
0.073125,2.6666753e-06
0.07314583333,2.451071396e-06
0.07316666667,2.401210622e-06
0.0731875,2.062900876e-06
0.07320833333,1.263888521e-06
0.07322916667,5.156812577e-08
0.07325,-1.260379122e-06
0.07327083333,-2.442727009e-06
0.07329166667,-3.046256552e-06
0.0733125,-3.604395033e-06
0.07333333333,-4.350343261e-06
0.07335416667,-5.015641364e-06
0.073375,-5.193292509e-06
0.07339583333,-4.458117019e-06
0.07341666667,-3.302650612e-06
0.0734375,-2.385212156e-06
0.07345833333,-1.931613951e-06
0.07347916667,-1.640366008e-06
0.0735,-8.238630471e-07
0.07352083333,4.119554262e-07
0.07354166667,1.359372391e-06
0.0735625,1.619582918e-06
0.07358333333,1.155475502e-06
0.07360416667,6.751239425e-07
0.073625,8.618612242e-07
0.07364583333,1.612419396e-06
0.07366666667,2.693892156e-06
0.0736875,3.691379561e-06
0.07370833333,4.470462954e-06
0.07372916667,5.264609626e-06
0.07375,6.349275282e-06
0.07377083333,7.897965588e-06
0.07379166667,9.438953384e-06
0.0738125,1.056174369e-05
0.07383333333,1.116713611e-05
0.07385416667,1.130793225e-05
0.073875,1.130528744e-05
0.07389583333,1.137264371e-05
0.07391666667,1.166696256e-05
0.0739375,1.190105468e-05
0.07395833333,1.198280461e-05
0.07397916667,1.232840532e-05
0.074,1.308651917e-05
0.07402083333,1.396745938e-05
0.07404166667,1.504159991e-05
0.0740625,1.61706339e-05
0.07408333333,1.705598515e-05
0.07410416667,1.802137194e-05
0.074125,1.913021151e-05
0.07414583333,2.027962728e-05
0.07416666667,2.140011566e-05
0.0741875,2.209827835e-05
0.07420833333,2.251297155e-05
0.07422916667,2.289211443e-05
0.07425,2.345677785e-05
0.07427083333,2.447217594e-05
0.07429166667,2.578560998e-05
0.0743125,2.691485679e-05
0.07433333333,2.728603613e-05
0.07435416667,2.690758993e-05
0.074375,2.668408342e-05
0.07439583333,2.695009789e-05
0.07441666667,2.73051246e-05
0.0744375,2.725888953e-05
0.07445833333,2.624254194e-05
0.07447916667,2.463616329e-05
0.0745,2.315284291e-05
0.07452083333,2.247355224e-05
0.07454166667,2.254278661e-05
0.0745625,2.283529102e-05
0.07458333333,2.26277989e-05
0.07460416667,2.216757093e-05
0.074625,2.187623613e-05
0.07464583333,2.182870594e-05
0.07466666667,2.165940168e-05
0.0746875,2.09797654e-05
0.07470833333,2.017993756e-05
0.07472916667,1.956374035e-05
0.07475,1.881142816e-05
0.07477083333,1.834393879e-05
0.07479166667,1.823495586e-05
0.0748125,1.830387919e-05
0.07483333333,1.846845589e-05
0.07485416667,1.849462569e-05
0.074875,1.898279152e-05
0.07489583333,1.968520155e-05
0.07491666667,2.004383168e-05
0.0749375,2.028854215e-05
0.07495833333,2.016452709e-05
0.07497916667,2.00258728e-05
0.075,2.000335917e-05
0.07502083333,1.97059926e-05
0.07504166667,1.94009117e-05
0.0750625,1.901417636e-05
0.07508333333,1.862166573e-05
0.07510416667,1.797345976e-05
0.075125,1.73603421e-05
0.07514583333,1.704793249e-05
0.07516666667,1.676627107e-05
0.0751875,1.649136721e-05
0.07520833333,1.577938565e-05
0.07522916667,1.482243624e-05
0.07525,1.374077237e-05
0.07527083333,1.303735371e-05
0.07529166667,1.293961668e-05
0.0753125,1.277073352e-05
0.07533333333,1.233673174e-05
0.07535416667,1.150342359e-05
0.075375,1.07194528e-05
0.07539583333,1.046775651e-05
0.07541666667,1.042271379e-05
0.0754375,1.06125517e-05
0.07545833333,1.024023368e-05
0.07547916667,9.178048458e-06
0.0755,8.123532098e-06
0.07552083333,7.442553851e-06
0.07554166667,7.429638572e-06
0.0755625,7.402331448e-06
0.07558333333,7.070463653e-06
0.07560416667,6.680324532e-06
0.075625,6.524573109e-06
0.07564583333,6.832560757e-06
0.07566666667,7.24169422e-06
0.0756875,7.394233307e-06
0.07570833333,7.344254755e-06
0.07572916667,6.92237154e-06
0.07575,6.591842521e-06
0.07577083333,6.336872957e-06
0.07579166667,5.857240922e-06
0.0758125,4.972459465e-06
0.07583333333,4.009393251e-06
0.07585416667,3.275926701e-06
0.075875,3.079565886e-06
0.07589583333,3.235942813e-06
0.07591666667,3.092477073e-06
0.0759375,3.014518825e-06
0.07595833333,2.629777327e-06
0.07597916667,2.269468041e-06
0.076,2.282924015e-06
0.07602083333,2.256240123e-06
0.07604166667,2.200266636e-06
0.0760625,1.713271786e-06
0.07608333333,9.499387943e-07
0.07610416667,-8.066692203e-08
0.076125,-1.040132474e-06
0.07614583333,-1.344197813e-06
0.07616666667,-1.15814305e-06
0.0761875,-7.222354839e-07
0.07620833333,-5.095135975e-07
0.07622916667,-5.58973511e-07
0.07625,-6.466435138e-07
0.07627083333,-6.354810012e-07
0.07629166667,-1.846880906e-07
0.0763125,5.071999567e-07
0.07633333333,7.809235854e-07
0.07635416667,5.893585353e-07
0.076375,4.145796311e-07
0.07639583333,4.618781873e-07
0.07641666667,6.903725307e-07
0.0764375,1.019440788e-06
0.07645833333,1.135373395e-06
0.07647916667,1.416631335e-06
0.0765,1.381396032e-06
0.07652083333,1.382856453e-06
0.07654166667,1.473806151e-06
0.0765625,1.366189508e-06
0.07658333333,1.255956022e-06
0.07660416667,9.354830013e-07
0.076625,4.256423836e-07
0.07664583333,3.33516823e-08
0.07666666667,-3.508945667e-07
0.0766875,-5.992010301e-07
0.07670833333,-1.097436325e-06
0.07672916667,-1.576725708e-06
0.07675,-2.020314696e-06
0.07677083333,-2.535638714e-06
0.07679166667,-3.026782451e-06
0.0768125,-3.208803491e-06
0.07683333333,-3.074907227e-06
0.07685416667,-3.385870286e-06
0.076875,-3.90950936e-06
0.07689583333,-4.449564585e-06
0.07691666667,-4.831946171e-06
0.0769375,-4.775870366e-06
0.07695833333,-4.802729109e-06
0.07697916667,-4.885386716e-06
0.077,-5.285116913e-06
0.07702083333,-5.783252163e-06
0.07704166667,-5.978686659e-06
0.0770625,-5.87577324e-06
0.07708333333,-5.534892352e-06
0.07710416667,-5.173433692e-06
0.077125,-4.974552212e-06
0.07714583333,-4.780637937e-06
0.07716666667,-4.840158454e-06
0.0771875,-4.719115623e-06
0.07720833333,-4.509112841e-06
0.07722916667,-4.080159215e-06
0.07725,-3.601649723e-06
0.07727083333,-3.665578106e-06
0.07729166667,-3.873868081e-06
0.0773125,-4.106903816e-06
0.07733333333,-3.823885436e-06
0.07735416667,-3.695295618e-06
0.077375,-4.241870556e-06
0.07739583333,-4.987123702e-06
0.07741666667,-6.039668733e-06
0.0774375,-6.207609658e-06
0.07745833333,-6.293272691e-06
0.07747916667,-6.754650258e-06
0.0775,-7.149162684e-06
0.07752083333,-7.911888133e-06
0.07754166667,-8.413520845e-06
0.0775625,-8.540564522e-06
0.07758333333,-8.764201993e-06
0.07760416667,-9.209162272e-06
0.077625,-9.882019185e-06
0.07764583333,-1.052031894e-05
0.07766666667,-1.111664824e-05
0.0776875,-1.176792193e-05
0.07770833333,-1.231932947e-05
0.07772916667,-1.271738347e-05
0.07775,-1.309655636e-05
0.07777083333,-1.316815633e-05
0.07779166667,-1.303041336e-05
0.0778125,-1.288819658e-05
0.07783333333,-1.263223385e-05
0.07785416667,-1.234000592e-05
0.077875,-1.170614723e-05
0.07789583333,-1.110642188e-05
0.07791666667,-1.056642759e-05
0.0779375,-1.017287741e-05
0.07795833333,-1.022098331e-05
0.07797916667,-1.039276412e-05
0.078,-1.054008317e-05
0.07802083333,-1.068945858e-05
0.07804166667,-1.079480717e-05
0.0780625,-1.072557552e-05
0.07808333333,-1.058724411e-05
0.07810416667,-1.057956069e-05
0.078125,-1.064648586e-05
0.07814583333,-1.074905413e-05
0.07816666667,-1.095296648e-05
0.0781875,-1.09947232e-05
0.07820833333,-1.093594437e-05
0.07822916667,-1.095547486e-05
0.07825,-1.130903274e-05
0.07827083333,-1.212563711e-05
0.07829166667,-1.289525972e-05
0.0783125,-1.326347592e-05
0.07833333333,-1.325957055e-05
0.07835416667,-1.32956784e-05
0.078375,-1.355366021e-05
0.07839583333,-1.361378781e-05
0.07841666667,-1.303992212e-05
0.0784375,-1.188709848e-05
0.07845833333,-1.088803947e-05
0.07847916667,-1.012215671e-05
0.0785,-8.703645108e-06
0.07852083333,-7.236425063e-06
0.07854166667,-6.298114386e-06
0.0785625,-5.115556633e-06
0.07858333333,-4.128098226e-06
0.07860416667,-3.322757721e-06
0.078625,-2.099149015e-06
0.07864583333,-1.004117621e-06
0.07866666667,3.247993163e-07
0.0786875,1.355638801e-06
0.07870833333,2.518740303e-06
0.07872916667,3.86490774e-06
0.07875,4.784692464e-06
0.07877083333,6.181105164e-06
0.07879166667,7.464200735e-06
0.0788125,8.551837709e-06
0.07883333333,9.391025742e-06
0.07885416667,9.624101949e-06
0.078875,9.906118066e-06
0.07889583333,1.011645872e-05
0.07891666667,1.01944388e-05
0.0789375,1.00599309e-05
0.07895833333,9.306701031e-06
0.07897916667,8.50646029e-06
0.079,7.900897799e-06
0.07902083333,7.423599527e-06
0.07904166667,6.93078664e-06
0.0790625,5.887930001e-06
0.07908333333,5.173103546e-06
0.07910416667,4.450830602e-06
0.079125,3.757515515e-06
0.07914583333,3.531832135e-06
0.07916666667,3.255795264e-06
0.0791875,3.072104619e-06
0.07920833333,2.668184607e-06
0.07922916667,2.027658411e-06
0.07925,1.650567356e-06
0.07927083333,1.591244882e-06
0.07929166667,1.467114203e-06
0.0793125,1.368999847e-06
0.07933333333,7.755536444e-07
0.07935416667,2.403715484e-07
0.079375,5.360357136e-08
0.07939583333,-2.668462571e-07
0.07941666667,-3.286003789e-07
0.0794375,-6.505597412e-07
0.07945833333,-1.240549068e-06
0.07947916667,-1.202832209e-06
0.0795,-1.445173893e-06
0.07952083333,-1.830258384e-06
0.07954166667,-2.343768301e-06
0.0795625,-2.858544804e-06
0.07958333333,-3.242227194e-06
0.07960416667,-3.971583283e-06
0.079625,-4.841684586e-06
0.07964583333,-5.662561762e-06
0.07966666667,-6.723936622e-06
0.0796875,-7.94985317e-06
0.07970833333,-9.542596672e-06
0.07972916667,-1.107838034e-05
0.07975,-1.210323353e-05
0.07977083333,-1.342542873e-05
0.07979166667,-1.477205296e-05
0.0798125,-1.64078283e-05
0.07983333333,-1.800969221e-05
0.07985416667,-1.945785698e-05
0.079875,-2.103205225e-05
0.07989583333,-2.209378727e-05
0.07991666667,-2.328493065e-05
0.0799375,-2.417830729e-05
0.07995833333,-2.473849418e-05
0.07997916667,-2.561784277e-05
0.08,-2.577459782e-05
0.08002083333,-2.628179755e-05
0.08004166667,-2.610421689e-05
0.0800625,-2.597776438e-05
0.08008333333,-2.607864553e-05
0.08010416667,-2.568167838e-05
0.080125,-2.563356611e-05
0.08014583333,-2.5241814e-05
0.08016666667,-2.512643368e-05
0.0801875,-2.496885645e-05
0.08020833333,-2.443716767e-05
0.08022916667,-2.396004129e-05
0.08025,-2.334861711e-05
0.08027083333,-2.28803674e-05
0.08029166667,-2.236079854e-05
0.0803125,-2.160963413e-05
0.08033333333,-2.109580419e-05
0.08035416667,-2.0671534e-05
0.080375,-2.034971294e-05
0.08039583333,-2.002595647e-05
0.08041666667,-1.96603778e-05
0.0804375,-1.937162961e-05
0.08045833333,-1.923352465e-05
0.08047916667,-1.939230788e-05
0.0805,-1.952137791e-05
0.08052083333,-1.974931365e-05
0.08054166667,-1.982157846e-05
0.0805625,-1.983452239e-05
0.08058333333,-1.976893509e-05
0.08060416667,-1.94866916e-05
0.080625,-1.975023406e-05
0.08064583333,-1.979512126e-05
0.08066666667,-1.977985448e-05
0.0806875,-1.946386146e-05
0.08070833333,-1.880328273e-05
0.08072916667,-1.866765888e-05
0.08075,-1.855936534e-05
0.08077083333,-1.825114123e-05
0.08079166667,-1.7777018e-05
0.0808125,-1.713757592e-05
0.08083333333,-1.658981637e-05
0.08085416667,-1.578798765e-05
0.080875,-1.484822496e-05
0.08089583333,-1.409458582e-05
0.08091666667,-1.308579067e-05
0.0809375,-1.227428038e-05
0.08095833333,-1.112764585e-05
0.08097916667,-1.009041898e-05
0.081,-9.455222425e-06
0.08102083333,-8.494078429e-06
0.08104166667,-7.27266297e-06
0.0810625,-5.936846719e-06
0.08108333333,-4.911383257e-06
0.08110416667,-4.365198947e-06
0.081125,-3.421980409e-06
0.08114583333,-2.49958839e-06
0.08116666667,-1.218404805e-06
0.0811875,-2.497471741e-08
0.08120833333,6.936539876e-07
0.08122916667,1.592505555e-06
0.08125,2.445977998e-06
0.08127083333,2.962666485e-06
0.08129166667,3.333361974e-06
0.0813125,3.636338988e-06
0.08133333333,3.650132157e-06
0.08135416667,3.555864168e-06
0.081375,3.182480441e-06
0.08139583333,3.003052598e-06
0.08141666667,2.720271823e-06
0.0814375,2.405055966e-06
0.08145833333,1.923229775e-06
0.08147916667,1.472622557e-06
0.0815,1.278485911e-06
0.08152083333,1.3775865e-06
0.08154166667,1.398347422e-06
0.0815625,1.088504519e-06
0.08158333333,9.691183323e-07
0.08160416667,9.743716873e-07
0.081625,1.213271389e-06
0.08164583333,1.404636123e-06
0.08166666667,1.630244242e-06
0.0816875,2.144847031e-06
0.08170833333,2.170364496e-06
0.08172916667,2.15644468e-06
0.08175,2.60667025e-06
0.08177083333,3.169395995e-06
0.08179166667,4.156085197e-06
0.0818125,4.735461062e-06
0.08183333333,5.513251836e-06
0.08185416667,6.310395747e-06
0.081875,6.784042853e-06
0.08189583333,7.446577456e-06
0.08191666667,7.357255527e-06
0.0819375,7.199359516e-06
0.08195833333,7.153224942e-06
0.08197916667,6.694659533e-06
0.082,6.062758075e-06
0.08202083333,4.955075383e-06
0.08204166667,3.849663699e-06
0.0820625,2.857411801e-06
0.08208333333,1.696105869e-06
0.08210416667,9.983968994e-07
0.082125,4.238682436e-07
0.08214583333,-8.089078847e-07
0.08216666667,-1.995428875e-06
0.0821875,-2.986460686e-06
0.08220833333,-3.757965715e-06
0.08222916667,-4.520668881e-06
0.08225,-5.442461315e-06
0.08227083333,-6.529501661e-06
0.08229166667,-7.899084267e-06
0.0823125,-8.531706953e-06
0.08233333333,-9.090069398e-06
0.08235416667,-1.004272053e-05
0.082375,-1.073530439e-05
0.08239583333,-1.128389431e-05
0.08241666667,-1.131352474e-05
0.0824375,-1.108919605e-05
0.08245833333,-1.095785592e-05
0.08247916667,-1.069765403e-05
0.0825,-1.039678045e-05
0.08252083333,-9.982609299e-06
0.08254166667,-9.4766865e-06
0.0825625,-8.958621038e-06
0.08258333333,-8.977934158e-06
0.08260416667,-8.57008763e-06
0.082625,-8.040112334e-06
0.08264583333,-8.128642548e-06
0.08266666667,-8.258014532e-06
0.0826875,-9.038807548e-06
0.08270833333,-8.768375665e-06
0.08272916667,-8.181501471e-06
0.08275,-8.279100257e-06
0.08277083333,-8.244312994e-06
0.08279166667,-8.693101336e-06
0.0828125,-8.036415238e-06
0.08283333333,-7.414956599e-06
0.08285416667,-7.227589776e-06
0.082875,-6.43222711e-06
0.08289583333,-5.943561519e-06
0.08291666667,-5.225479072e-06
0.0829375,-4.667716894e-06
0.08295833333,-4.307737072e-06
0.08297916667,-3.927314538e-06
0.083,-3.919294613e-06
0.08302083333,-3.705097697e-06
0.08304166667,-3.548288305e-06
0.0830625,-3.55028692e-06
0.08308333333,-3.40983911e-06
0.08310416667,-2.99661906e-06
0.083125,-2.604049996e-06
0.08314583333,-2.581677791e-06
0.08316666667,-2.128146207e-06
0.0831875,-1.257555368e-06
0.08320833333,-2.664174872e-07
0.08322916667,8.051447367e-07
0.08325,1.340022891e-06
0.08327083333,1.887842018e-06
0.08329166667,2.266393949e-06
0.0833125,2.915416871e-06
0.08333333333,3.664504902e-06
0.08335416667,3.933846983e-06
0.083375,4.041195552e-06
0.08339583333,4.313219051e-06
0.08341666667,4.348019957e-06
0.0834375,4.291991445e-06
0.08345833333,4.71801286e-06
0.08347916667,5.353675988e-06
0.0835,5.681736639e-06
0.08352083333,5.674583008e-06
0.08354166667,6.160704288e-06
0.0835625,6.360258794e-06
0.08358333333,7.035968338e-06
0.08360416667,7.387017831e-06
0.083625,7.498764717e-06
0.08364583333,7.874979929e-06
0.08366666667,7.76959223e-06
0.0836875,8.070701369e-06
0.08370833333,8.858689398e-06
0.08372916667,9.180747838e-06
0.08375,8.771216926e-06
0.08377083333,8.09604353e-06
0.08379166667,7.851742339e-06
0.0838125,7.737110536e-06
0.08383333333,7.568715318e-06
0.08385416667,7.140340585e-06
0.083875,6.577279692e-06
0.08389583333,5.790198429e-06
0.08391666667,5.491048796e-06
0.0839375,5.334763955e-06
0.08395833333,5.075947229e-06
0.08397916667,5.277110176e-06
0.084,4.846363026e-06
0.08402083333,4.129529771e-06
0.08404166667,3.385667696e-06
0.0840625,2.834847237e-06
0.08408333333,2.499707307e-06
0.08410416667,1.080486527e-06
0.084125,2.393830414e-07
0.08414583333,-4.174737853e-07
0.08416666667,-1.067722337e-06
0.0841875,-1.241034397e-06
0.08420833333,-1.926284313e-06
0.08422916667,-2.37413974e-06
0.08425,-2.363640306e-06
0.08427083333,-2.201397137e-06
0.08429166667,-1.602548991e-06
0.0843125,-1.175431407e-06
0.08433333333,-1.025312713e-06
0.08435416667,-8.606169217e-07
0.084375,-9.909689425e-07
0.08439583333,-8.782704413e-07
0.08441666667,-1.117437705e-06
0.0844375,-1.835979901e-06
0.08445833333,-2.121118087e-06
0.08447916667,-2.42950432e-06
0.0845,-3.338589067e-06
0.08452083333,-4.908728897e-06
0.08454166667,-5.996728305e-06
0.0845625,-7.175599421e-06
0.08458333333,-8.114727279e-06
0.08460416667,-9.466550182e-06
0.084625,-1.090631486e-05
0.08464583333,-1.189797149e-05
0.08466666667,-1.313962639e-05
0.0846875,-1.451140633e-05
0.08470833333,-1.566191713e-05
0.08472916667,-1.665468699e-05
0.08475,-1.702121153e-05
0.08477083333,-1.772463838e-05
0.08479166667,-1.857535608e-05
0.0848125,-1.88427839e-05
0.08483333333,-1.965149568e-05
0.08485416667,-1.996078936e-05
0.084875,-2.08800011e-05
0.08489583333,-2.187723112e-05
0.08491666667,-2.197384129e-05
0.0849375,-2.235482862e-05
0.08495833333,-2.239157038e-05
0.08497916667,-2.253840285e-05
0.085,-2.287309326e-05
0.08502083333,-2.289993427e-05
0.08504166667,-2.247878729e-05
0.0850625,-2.128061169e-05
0.08508333333,-2.0478652e-05
0.08510416667,-2.045168912e-05
0.085125,-2.002524343e-05
0.08514583333,-1.939334106e-05
0.08516666667,-1.849138062e-05
0.0851875,-1.803601117e-05
0.08520833333,-1.723411151e-05
0.08522916667,-1.686354699e-05
0.08525,-1.664630327e-05
0.08527083333,-1.569975757e-05
0.08529166667,-1.52210705e-05
0.0853125,-1.479252296e-05
0.08533333333,-1.42509034e-05
0.08535416667,-1.437747233e-05
0.085375,-1.372555198e-05
0.08539583333,-1.310952211e-05
0.08541666667,-1.317165152e-05
0.0854375,-1.304715533e-05
0.08545833333,-1.299352243e-05
0.08547916667,-1.316446833e-05
0.0855,-1.376544515e-05
0.08552083333,-1.438855543e-05
0.08554166667,-1.438479558e-05
0.0855625,-1.420256376e-05
0.08558333333,-1.426551444e-05
0.08560416667,-1.415058523e-05
0.085625,-1.403205897e-05
0.08564583333,-1.378326942e-05
0.08566666667,-1.341987991e-05
0.0856875,-1.284059817e-05
0.08570833333,-1.194493234e-05
0.08572916667,-1.074391093e-05
0.08575,-1.013275869e-05
0.08577083333,-9.592228707e-06
0.08579166667,-8.982366126e-06
0.0858125,-8.028567208e-06
0.08583333333,-6.457943073e-06
0.08585416667,-5.776534636e-06
0.085875,-5.234190212e-06
0.08589583333,-4.46318154e-06
0.08591666667,-3.183076615e-06
0.0859375,-2.039718765e-06
0.08595833333,-1.472045369e-06
0.08597916667,-9.007533208e-07
0.086,-5.037319966e-07
0.08602083333,-1.195627419e-07
0.08604166667,3.094644399e-07
0.0860625,4.166272447e-07
0.08608333333,-1.449431011e-07
0.08610416667,-6.386258065e-07
0.086125,-8.455365901e-07
0.08614583333,-2.061878604e-06
0.08616666667,-2.360740154e-06
0.0861875,-2.754529305e-06
0.08620833333,-3.312365607e-06
0.08622916667,-4.027278919e-06
0.08625,-5.62088735e-06
0.08627083333,-6.422815204e-06
0.08629166667,-6.620405657e-06
0.0863125,-7.356195056e-06
0.08633333333,-7.849610483e-06
0.08635416667,-8.553165571e-06
0.086375,-8.428947694e-06
0.08639583333,-9.141675037e-06
0.08641666667,-9.706868696e-06
0.0864375,-9.299025805e-06
0.08645833333,-9.614645023e-06
0.08647916667,-9.625903658e-06
0.0865,-9.904397302e-06
0.08652083333,-1.021991284e-05
0.08654166667,-1.069944574e-05
0.0865625,-1.082635572e-05
0.08658333333,-1.098078064e-05
0.08660416667,-1.165934555e-05
0.086625,-1.210226492e-05
0.08664583333,-1.237886408e-05
0.08666666667,-1.239514677e-05
0.0866875,-1.238649838e-05
0.08670833333,-1.239196627e-05
0.08672916667,-1.211235303e-05
0.08675,-1.197573874e-05
