time,data
0,7.422660708e-09
2.083333333e-05,1.513344117e-08
4.166666667e-05,2.239105257e-08
6.25e-05,2.913669128e-08
8.333333333e-05,3.589567044e-08
0.0001041666667,4.299599965e-08
0.000125,5.056374874e-08
0.0001458333333,5.840187001e-08
0.0001666666667,6.603466574e-08
0.0001875,7.342987374e-08
0.0002083333333,8.062495027e-08
0.0002291666667,8.822588171e-08
0.00025,9.651925836e-08
0.0002708333333,1.056102334e-07
0.0002916666667,1.152210842e-07
0.0003125,1.248032646e-07
0.0003333333333,1.342474292e-07
0.0003541666667,1.434155621e-07
0.000375,1.527442492e-07
0.0003958333333,1.623074581e-07
0.0004166666667,1.720843414e-07
0.0004375,1.817616351e-07
0.0004583333333,1.908002645e-07
0.0004791666667,1.991330407e-07
0.0005,2.06619859e-07
0.0005208333333,2.137528128e-07
0.0005416666667,2.207100209e-07
0.0005625,2.277316042e-07
0.0005833333333,2.347227479e-07
0.0006041666667,2.413315201e-07
0.000625,2.474354517e-07
0.0006458333333,2.527334573e-07
0.0006666666667,2.575637552e-07
0.0006875,2.619907491e-07
0.0007083333333,2.663097121e-07
0.0007291666667,2.703314124e-07
0.00075,2.73502792e-07
0.0007708333333,2.753682224e-07
0.0007916666667,2.75269656e-07
0.0008125,2.735934856e-07
0.0008333333333,2.705899647e-07
0.0008541666667,2.670427364e-07
0.000875,2.630497988e-07
0.0008958333333,2.581419096e-07
0.0009166666667,2.518519295e-07
0.0009375,2.435458271e-07
0.0009583333333,2.339204883e-07
0.0009791666667,2.236676409e-07
0.001,2.138050519e-07
0.001020833333,2.043714318e-07
0.001041666667,1.943703865e-07
0.0010625,1.827945226e-07
0.001083333333,1.6867358e-07
0.001104166667,1.526837536e-07
0.001125,1.356877135e-07
0.001145833333,1.187619247e-07
0.001166666667,1.017048561e-07
0.0011875,8.337563173e-08
0.001208333333,6.2631905e-08
0.001229166667,3.90118835e-08
0.00125,1.380067172e-08
0.001270833333,-1.149961726e-08
0.001291666667,-3.544030136e-08
0.0013125,-5.831325822e-08
0.001333333333,-8.132704465e-08
0.001354166667,-1.056563477e-07
0.001375,-1.317418992e-07
0.001395833333,-1.58158997e-07
0.001416666667,-1.838197079e-07
0.0014375,-2.076893679e-07
0.001458333333,-2.30730933e-07
0.001479166667,-2.544891231e-07
0.0015,-2.801591563e-07
0.001520833333,-3.080158422e-07
0.001541666667,-3.364868633e-07
0.0015625,-3.643226592e-07
0.001583333333,-3.904441996e-07
0.001604166667,-4.153313e-07
0.001625,-4.399832108e-07
0.001645833333,-4.649132563e-07
0.001666666667,-4.900045383e-07
0.0016875,-5.13733255e-07
0.001708333333,-5.35142135e-07
0.001729166667,-5.533678973e-07
0.00175,-5.691733804e-07
0.001770833333,-5.834957619e-07
0.001791666667,-5.973969337e-07
0.0018125,-6.113080531e-07
0.001833333333,-6.245685427e-07
0.001854166667,-6.367280889e-07
0.001875,-6.468346214e-07
0.001895833333,-6.551582032e-07
0.001916666667,-6.621217494e-07
0.0019375,-6.683642368e-07
0.001958333333,-6.744659231e-07
0.001979166667,-6.794354022e-07
0.002,-6.82481982e-07
0.002020833333,-6.816997029e-07
0.002041666667,-6.766898082e-07
0.0020625,-6.678168347e-07
0.002083333333,-6.563982424e-07
0.002104166667,-6.440381526e-07
0.002125,-6.306873956e-07
0.002145833333,-6.156474797e-07
0.002166666667,-5.972435702e-07
0.0021875,-5.749526508e-07
0.002208333333,-5.49996571e-07
0.002229166667,-5.244249337e-07
0.00225,-5.003943784e-07
0.002270833333,-4.775519074e-07
0.002291666667,-4.540665088e-07
0.0023125,-4.269988949e-07
0.002333333333,-3.951668361e-07
0.002354166667,-3.59490997e-07
0.002375,-3.225447927e-07
0.002395833333,-2.862244344e-07
0.002416666667,-2.50081456e-07
0.0024375,-2.117287465e-07
0.002458333333,-1.684239379e-07
0.002479166667,-1.198360309e-07
0.0025,-6.829343846e-08
0.002520833333,-1.746675693e-08
0.002541666667,2.995898996e-08
0.0025625,7.467912155e-08
0.002583333333,1.189714567e-07
0.002604166667,1.658252131e-07
0.002625,2.153230554e-07
0.002645833333,2.65417242e-07
0.002666666667,3.131456765e-07
0.0026875,3.570862077e-07
0.002708333333,3.989022446e-07
0.002729166667,4.416674813e-07
0.00275,4.88012688e-07
0.002770833333,5.380567814e-07
0.002791666667,5.892327408e-07
0.0028125,6.387904818e-07
0.002833333333,6.847917575e-07
0.002854166667,7.281806802e-07
0.002875,7.704872473e-07
0.002895833333,8.131767117e-07
0.002916666667,8.555592217e-07
0.0029375,8.955225894e-07
0.002958333333,9.308160429e-07
0.002979166667,9.60322609e-07
0.003,9.849238722e-07
0.003020833333,1.006567345e-06
0.003041666667,1.027109647e-06
0.0030625,1.047543606e-06
0.003083333333,1.067126846e-06
0.003104166667,1.084891665e-06
0.003125,1.099312044e-06
0.003145833333,1.110478138e-06
0.003166666667,1.118851515e-06
0.0031875,1.125995709e-06
0.003208333333,1.132550437e-06
0.003229166667,1.137862682e-06
0.00325,1.139882102e-06
0.003270833333,1.13569763e-06
0.003291666667,1.123956849e-06
0.0033125,1.10517658e-06
0.003333333333,1.08187578e-06
0.003354166667,1.057063287e-06
0.003375,1.031089482e-06
0.003395833333,1.003033276e-06
0.003416666667,9.694423397e-07
0.0034375,9.296495591e-07
0.003458333333,8.849879691e-07
0.003479166667,8.396458497e-07
0.0035,7.972888056e-07
0.003520833333,7.578177019e-07
0.003541666667,7.180304351e-07
0.0035625,6.727270829e-07
0.003583333333,6.194259754e-07
0.003604166667,5.598182042e-07
0.003625,4.980246331e-07
0.003645833333,4.380383984e-07
0.003666666667,3.788294407e-07
0.0036875,3.168235025e-07
0.003708333333,2.46779166e-07
0.003729166667,1.683144433e-07
0.00375,8.496061099e-08
0.003770833333,3.435890239e-09
0.003791666667,-7.192108598e-08
0.0038125,-1.418088829e-07
0.003833333333,-2.104431047e-07
0.003854166667,-2.828242316e-07
0.003875,-3.593146403e-07
0.003895833333,-4.364450206e-07
0.003916666667,-5.092243214e-07
0.0039375,-5.74954754e-07
0.003958333333,-6.369226639e-07
0.003979166667,-6.996555157e-07
0.004,-7.686521144e-07
0.004020833333,-8.43065493e-07
0.004041666667,-9.195520079e-07
0.0040625,-9.925321365e-07
0.004083333333,-1.059334409e-06
0.004104166667,-1.121340688e-06
0.004125,-1.181341418e-06
0.004145833333,-1.242069743e-06
0.004166666667,-1.302135161e-06
0.0041875,-1.358110808e-06
0.004208333333,-1.406031743e-06
0.004229166667,-1.443915494e-06
0.00425,-1.473939392e-06
0.004270833333,-1.49874495e-06
0.004291666667,-1.522833259e-06
0.0043125,-1.546242288e-06
0.004333333333,-1.56907879e-06
0.004354166667,-1.588011401e-06
0.004375,-1.60166644e-06
0.004395833333,-1.609855872e-06
0.004416666667,-1.613811037e-06
0.0044375,-1.616797704e-06
0.004458333333,-1.618929673e-06
0.004479166667,-1.619704562e-06
0.0045,-1.614719963e-06
0.004520833333,-1.599515826e-06
0.004541666667,-1.572705742e-06
0.0045625,-1.53448741e-06
0.004583333333,-1.491105991e-06
0.004604166667,-1.444957093e-06
0.004625,-1.398648806e-06
0.004645833333,-1.348018486e-06
0.004666666667,-1.28919271e-06
0.0046875,-1.220582021e-06
0.004708333333,-1.144875682e-06
0.004729166667,-1.06983282e-06
0.00475,-9.998292398e-07
0.004770833333,-9.356754731e-07
0.004791666667,-8.706698509e-07
0.0048125,-7.970604656e-07
0.004833333333,-7.116801157e-07
0.004854166667,-6.164101478e-07
0.004875,-5.202724651e-07
0.004895833333,-4.26624041e-07
0.004916666667,-3.364299914e-07
0.0049375,-2.408627324e-07
0.004958333333,-1.338890314e-07
0.004979166667,-1.388769988e-08
0.005,1.128430895e-07
0.005020833333,2.349500647e-07
0.005041666667,3.4718542e-07
0.0050625,4.492740118e-07
0.005083333333,5.49739525e-07
0.005104166667,6.553157732e-07
0.005125,7.665266253e-07
0.005145833333,8.786760191e-07
0.005166666667,9.818459148e-07
0.0051875,1.074971351e-06
0.005208333333,1.159806629e-06
0.005229166667,1.247076511e-06
0.00525,1.342079258e-06
0.005270833333,1.445672183e-06
0.005291666667,1.551468813e-06
0.0053125,1.650860213e-06
0.005333333333,1.741013648e-06
0.005354166667,1.822254148e-06
0.005375,1.901083124e-06
0.005395833333,1.97968302e-06
0.005416666667,2.057138317e-06
0.0054375,2.12830696e-06
0.005458333333,2.185917538e-06
0.005479166667,2.229948677e-06
0.0055,2.259667099e-06
0.005520833333,2.283674803e-06
0.005541666667,2.30393357e-06
0.0055625,2.324520892e-06
0.005583333333,2.343168262e-06
0.005604166667,2.356030564e-06
0.005625,2.362115993e-06
0.005645833333,2.358658321e-06
0.005666666667,2.350511068e-06
0.0056875,2.339002322e-06
0.005708333333,2.326856247e-06
0.005729166667,2.312660854e-06
0.00575,2.289347321e-06
0.005770833333,2.253589173e-06
0.005791666667,2.198532229e-06
0.0058125,2.129874701e-06
0.005833333333,2.050586545e-06
0.005854166667,1.969345249e-06
0.005875,1.886739938e-06
0.005895833333,1.79878316e-06
0.005916666667,1.70068995e-06
0.0059375,1.587609518e-06
0.005958333333,1.466683557e-06
0.005979166667,1.344786483e-06
0.006,1.231625106e-06
0.006020833333,1.126802431e-06
0.006041666667,1.020982836e-06
0.0060625,9.058226169e-07
0.006083333333,7.719295922e-07
0.006104166667,6.278927458e-07
0.006125,4.793002404e-07
0.006145833333,3.374023265e-07
0.006166666667,1.988621392e-07
0.0061875,5.43766987e-08
0.006208333333,-1.045898728e-07
0.006229166667,-2.824229739e-07
0.00625,-4.667154485e-07
0.006270833333,-6.46183139e-07
0.006291666667,-8.093991255e-07
0.0063125,-9.585792213e-07
0.006333333333,-1.104744683e-06
0.006354166667,-1.255372126e-06
0.006375,-1.415220822e-06
0.006395833333,-1.571895837e-06
0.006416666667,-1.718860403e-06
0.0064375,-1.847571866e-06
0.006458333333,-1.96701194e-06
0.006479166667,-2.087302164e-06
0.0065,-2.217977453e-06
0.006520833333,-2.360378403e-06
0.006541666667,-2.502753887e-06
0.0065625,-2.637906164e-06
0.006583333333,-2.75670709e-06
0.006604166667,-2.864601583e-06
0.006625,-2.967570026e-06
0.006645833333,-3.068692195e-06
0.006666666667,-3.169428282e-06
0.0066875,-3.256568107e-06
0.006708333333,-3.328249477e-06
0.006729166667,-3.375666211e-06
0.00675,-3.406656788e-06
0.006770833333,-3.426522653e-06
0.006791666667,-3.44198429e-06
0.0068125,-3.457607363e-06
0.006833333333,-3.46786328e-06
0.006854166667,-3.471997161e-06
0.006875,-3.462847189e-06
0.006895833333,-3.442861043e-06
0.006916666667,-3.414420007e-06
0.0069375,-3.381480383e-06
0.006958333333,-3.34896572e-06
0.006979166667,-3.309754675e-06
0.007,-3.261857728e-06
0.007020833333,-3.190644748e-06
0.007041666667,-3.097556828e-06
0.0070625,-2.981445732e-06
0.007083333333,-2.853468004e-06
0.007104166667,-2.722598083e-06
0.007125,-2.588290045e-06
0.007145833333,-2.449385875e-06
0.007166666667,-2.292078307e-06
0.0071875,-2.117709073e-06
0.007208333333,-1.929934569e-06
0.007229166667,-1.742474296e-06
0.00725,-1.568857783e-06
0.007270833333,-1.403837132e-06
0.007291666667,-1.242443545e-06
0.0073125,-1.061916805e-06
0.007333333333,-8.615914453e-07
0.007354166667,-6.425232186e-07
0.007375,-4.214661828e-07
0.007395833333,-2.094596994e-07
0.007416666667,-1.871545807e-09
0.0074375,2.104284391e-07
0.007458333333,4.465420318e-07
0.007479166667,7.041175536e-07
0.0075,9.735108506e-07
0.007520833333,1.233625085e-06
0.007541666667,1.469865651e-06
0.0075625,1.688422458e-06
0.007583333333,1.897319862e-06
0.007604166667,2.117817303e-06
0.007625,2.344266477e-06
0.007645833333,2.571904133e-06
0.007666666667,2.781076546e-06
0.0076875,2.966804459e-06
0.007708333333,3.138209195e-06
0.007729166667,3.307704901e-06
0.00775,3.493857548e-06
0.007770833333,3.69099439e-06
0.007791666667,3.892022505e-06
0.0078125,4.079344308e-06
0.007833333333,4.244843694e-06
0.007854166667,4.395302312e-06
0.007875,4.53387338e-06
0.007895833333,4.674799584e-06
0.007916666667,4.807247024e-06
0.0079375,4.928627732e-06
0.007958333333,5.022562164e-06
0.007979166667,5.087397767e-06
0.008,5.127531495e-06
0.008020833333,5.149832759e-06
0.008041666667,5.168605185e-06
0.0080625,5.18178058e-06
0.008083333333,5.19276773e-06
0.008104166667,5.191394848e-06
0.008125,5.174121725e-06
0.008145833333,5.141841484e-06
0.008166666667,5.093638265e-06
0.0081875,5.043537385e-06
0.008208333333,4.985748546e-06
0.008229166667,4.926801921e-06
0.00825,4.849170637e-06
0.008270833333,4.746532795e-06
0.008291666667,4.611250006e-06
0.0083125,4.444531896e-06
0.008333333333,4.263508799e-06
0.008354166667,4.072724096e-06
0.008375,3.883300451e-06
0.008395833333,3.682576335e-06
0.008416666667,3.462070254e-06
0.0084375,3.21789139e-06
0.008458333333,2.953051307e-06
0.008479166667,2.692800763e-06
0.0085,2.441942115e-06
0.008520833333,2.211208312e-06
0.008541666667,1.976992962e-06
0.0085625,1.725545985e-06
0.008583333333,1.444061354e-06
0.008604166667,1.138708285e-06
0.008625,8.319366316e-07
0.008645833333,5.314861369e-07
0.008666666667,2.428594712e-07
0.0086875,-5.757721055e-08
0.008708333333,-3.832255402e-07
0.008729166667,-7.385830258e-07
0.00875,-1.110205062e-06
0.008770833333,-1.46592879e-06
0.008791666667,-1.798405947e-06
0.0088125,-2.098858204e-06
0.008833333333,-2.396052423e-06
0.008854166667,-2.698890967e-06
0.008875,-3.015093853e-06
0.008895833333,-3.329587344e-06
0.008916666667,-3.61947923e-06
0.0089375,-3.883186764e-06
0.008958333333,-4.122036898e-06
0.008979166667,-4.365261248e-06
0.009,-4.623204859e-06
0.009020833333,-4.898664884e-06
0.009041666667,-5.17802664e-06
0.0090625,-5.435855201e-06
0.009083333333,-5.671910458e-06
0.009104166667,-5.878974207e-06
0.009125,-6.080795174e-06
0.009145833333,-6.275751275e-06
0.009166666667,-6.466971627e-06
0.0091875,-6.638872037e-06
0.009208333333,-6.77535445e-06
0.009229166667,-6.876246971e-06
0.00925,-6.939588729e-06
0.009270833333,-6.986753306e-06
0.009291666667,-7.022893897e-06
0.0093125,-7.056989489e-06
0.009333333333,-7.085073776e-06
0.009354166667,-7.094853117e-06
0.009375,-7.087506674e-06
0.009395833333,-7.051832654e-06
0.009416666667,-7.005976386e-06
0.0094375,-6.947140264e-06
0.009458333333,-6.888755252e-06
0.009479166667,-6.820959698e-06
0.0095,-6.731119356e-06
0.009520833333,-6.608181593e-06
0.009541666667,-6.437493084e-06
0.0095625,-6.234050943e-06
0.009583333333,-6.004813258e-06
0.009604166667,-5.771329597e-06
0.009625,-5.534717275e-06
0.009645833333,-5.282618076e-06
0.009666666667,-5.006982974e-06
0.0096875,-4.691570211e-06
0.009708333333,-4.360389084e-06
0.009729166667,-4.023939255e-06
0.00975,-3.711610589e-06
0.009770833333,-3.415793344e-06
0.009791666667,-3.11895883e-06
0.0098125,-2.796949957e-06
0.009833333333,-2.43162981e-06
0.009854166667,-2.042277856e-06
0.009875,-1.643835162e-06
0.009895833333,-1.262955834e-06
0.009916666667,-8.909314033e-07
0.0099375,-5.054201324e-07
0.009958333333,-8.744590474e-08
0.009979166667,3.762554286e-07
0.01,8.649384426e-07
0.01002083333,1.352297204e-06
0.01004166667,1.778851242e-06
0.0100625,2.156727305e-06
0.01008333333,2.515368806e-06
0.01010416667,2.890068572e-06
0.010125,3.29787099e-06
0.01014583333,3.716127367e-06
0.01016666667,4.117870958e-06
0.0101875,4.474267371e-06
0.01020833333,4.794766483e-06
0.01022916667,5.104815955e-06
0.01025,5.428967597e-06
0.01027083333,5.784997938e-06
0.01029166667,6.15032468e-06
0.0103125,6.51281016e-06
0.01033333333,6.839605248e-06
0.01035416667,7.138063665e-06
0.010375,7.406571967e-06
0.01039583333,7.659532457e-06
0.01041666667,7.89880778e-06
0.0104375,8.112110663e-06
0.01045833333,8.301589332e-06
0.01047916667,8.45345221e-06
0.0105,8.577777407e-06
0.01052083333,8.678114682e-06
0.01054166667,8.758484e-06
0.0105625,8.825286386e-06
0.01058333333,8.867153156e-06
0.01060416667,8.893044651e-06
0.010625,8.891367543e-06
0.01064583333,8.880218047e-06
0.01066666667,8.852931387e-06
0.0106875,8.821495612e-06
0.01070833333,8.779117707e-06
0.01072916667,8.71559314e-06
0.01075,8.621635061e-06
0.01077083333,8.476809853e-06
0.01079166667,8.290967344e-06
0.0108125,8.066003829e-06
0.01083333333,7.824441127e-06
0.01085416667,7.580376405e-06
0.010875,7.321696103e-06
0.01089583333,7.044357062e-06
0.01091666667,6.710429716e-06
0.0109375,6.337790637e-06
0.01095833333,5.930767657e-06
0.01097916667,5.539418453e-06
0.011,5.181580036e-06
0.01102083333,4.853668543e-06
0.01104166667,4.532933872e-06
0.0110625,4.165062819e-06
0.01108333333,3.745237336e-06
0.01110416667,3.276224334e-06
0.011125,2.798130481e-06
0.01114583333,2.342182825e-06
0.01116666667,1.902634722e-06
0.0111875,1.466278036e-06
0.01120833333,9.788058151e-07
0.01122916667,4.476256095e-07
0.01125,-1.239053518e-07
0.01127083333,-6.841475511e-07
0.01129166667,-1.206919933e-06
0.0113125,-1.685952611e-06
0.01133333333,-2.138168611e-06
0.01135416667,-2.598568017e-06
0.011375,-3.066588306e-06
0.01139583333,-3.539373211e-06
0.01141666667,-3.991307949e-06
0.0114375,-4.41346765e-06
0.01145833333,-4.821172297e-06
0.01147916667,-5.222843811e-06
0.0115,-5.651580977e-06
0.01152083333,-6.081727406e-06
0.01154166667,-6.512978416e-06
0.0115625,-6.910633601e-06
0.01158333333,-7.278312296e-06
0.01160416667,-7.629411812e-06
0.011625,-7.970586012e-06
0.01164583333,-8.31847683e-06
0.01166666667,-8.649371011e-06
0.0116875,-8.945384252e-06
0.01170833333,-9.182631402e-06
0.01172916667,-9.358438547e-06
0.01175,-9.493067409e-06
0.01177083333,-9.601176316e-06
0.01179166667,-9.71688678e-06
0.0118125,-9.823686923e-06
0.01183333333,-9.930837223e-06
0.01185416667,-1.000450357e-05
0.011875,-1.003949001e-05
0.01189583333,-1.00394227e-05
0.01191666667,-1.000754128e-05
0.0119375,-9.973462511e-06
0.01195833333,-9.940162272e-06
0.01197916667,-9.907903404e-06
0.012,-9.853573829e-06
0.01202083333,-9.741825124e-06
0.01204166667,-9.5640371e-06
0.0120625,-9.31278737e-06
0.01208333333,-9.030280125e-06
0.01210416667,-8.725104635e-06
0.012125,-8.43122416e-06
0.01214583333,-8.13484894e-06
0.01216666667,-7.817824553e-06
0.0121875,-7.455975719e-06
0.01220833333,-7.053833087e-06
0.01222916667,-6.634954843e-06
0.01225,-6.224555364e-06
0.01227083333,-5.834605872e-06
0.01229166667,-5.447928743e-06
0.0123125,-5.041871646e-06
0.01233333333,-4.605176855e-06
0.01235416667,-4.123169219e-06
0.012375,-3.629382945e-06
0.01239583333,-3.125849616e-06
0.01241666667,-2.624676426e-06
0.0124375,-2.094709544e-06
0.01245833333,-1.537520347e-06
0.01247916667,-9.487854982e-07
0.0125,-3.543724745e-07
0.01252083333,2.15146855e-07
0.01254166667,7.542529374e-07
0.0125625,1.278339028e-06
0.01258333333,1.81084863e-06
0.01260416667,2.364286274e-06
0.012625,2.92357845e-06
0.01264583333,3.456340664e-06
0.01266666667,3.928010301e-06
0.0126875,4.356940281e-06
0.01270833333,4.76121113e-06
0.01272916667,5.197755399e-06
0.01275,5.673110991e-06
0.01277083333,6.188895895e-06
0.01279166667,6.685851986e-06
0.0128125,7.138201909e-06
0.01283333333,7.537761576e-06
0.01285416667,7.896776879e-06
0.012875,8.259286915e-06
0.01289583333,8.632988283e-06
0.01291666667,9.003634659e-06
0.0129375,9.343704733e-06
0.01295833333,9.616604075e-06
0.01297916667,9.822178072e-06
0.013,9.96192648e-06
0.01302083333,1.008410527e-05
0.01304166667,1.018979583e-05
0.0130625,1.030363637e-05
0.01308333333,1.040399729e-05
0.01310416667,1.047656042e-05
0.013125,1.052348944e-05
0.01314583333,1.053525921e-05
0.01316666667,1.052665266e-05
0.0131875,1.050877108e-05
0.01320833333,1.047765454e-05
0.01322916667,1.042219537e-05
0.01325,1.033396256e-05
0.01327083333,1.018790317e-05
0.01329166667,9.979054084e-06
0.0133125,9.748396224e-06
0.01333333333,9.474927538e-06
0.01335416667,9.196379324e-06
0.013375,8.894677194e-06
0.01339583333,8.54746213e-06
0.01341666667,8.154639545e-06
0.0134375,7.708981684e-06
0.01345833333,7.24763504e-06
0.01347916667,6.820139788e-06
0.0135,6.432249847e-06
0.01352083333,6.075759302e-06
0.01354166667,5.695001164e-06
0.0135625,5.258958026e-06
0.01358333333,4.736028131e-06
0.01360416667,4.17356614e-06
0.013625,3.608488896e-06
0.01364583333,3.09426855e-06
0.01366666667,2.614525329e-06
0.0136875,2.13337762e-06
0.01370833333,1.589704993e-06
0.01372916667,9.685138593e-07
0.01375,2.873446761e-07
0.01377083333,-4.045830622e-07
0.01379166667,-1.037800757e-06
0.0138125,-1.605552029e-06
0.01383333333,-2.11343604e-06
0.01385416667,-2.598112815e-06
0.013875,-3.107851171e-06
0.01389583333,-3.618594064e-06
0.01391666667,-4.143515071e-06
0.0139375,-4.656576039e-06
0.01395833333,-5.157391115e-06
0.01397916667,-5.645523288e-06
0.014,-6.116829809e-06
0.01402083333,-6.556769677e-06
0.01404166667,-6.967920399e-06
0.0140625,-7.363627901e-06
0.01408333333,-7.762272617e-06
0.01410416667,-8.191399502e-06
0.014125,-8.65893162e-06
0.01414583333,-9.118382877e-06
0.01416666667,-9.511508324e-06
0.0141875,-9.787930139e-06
0.01420833333,-9.942963516e-06
0.01422916667,-1.001824876e-05
0.01425,-1.011012955e-05
0.01427083333,-1.024286394e-05
0.01429166667,-1.044240253e-05
0.0143125,-1.064507978e-05
0.01433333333,-1.076240733e-05
0.01435416667,-1.075349428e-05
0.014375,-1.062444153e-05
0.01439583333,-1.046262878e-05
0.01441666667,-1.03618695e-05
0.0144375,-1.035015248e-05
0.01445833333,-1.043986686e-05
0.01447916667,-1.051146319e-05
0.0145,-1.048762624e-05
0.01452083333,-1.02738677e-05
0.01454166667,-9.89275577e-06
0.0145625,-9.419260095e-06
0.01458333333,-8.970109775e-06
0.01460416667,-8.613775208e-06
0.014625,-8.364329005e-06
0.01464583333,-8.132591574e-06
0.01466666667,-7.82927691e-06
0.0146875,-7.376469966e-06
0.01470833333,-6.788270184e-06
0.01472916667,-6.152260994e-06
0.01475,-5.578172477e-06
0.01477083333,-5.122816219e-06
0.01479166667,-4.775257821e-06
0.0148125,-4.443897524e-06
0.01483333333,-4.029751835e-06
0.01485416667,-3.452420742e-06
0.014875,-2.735739372e-06
0.01489583333,-1.985866447e-06
0.01491666667,-1.276079274e-06
0.0149375,-6.802478083e-07
0.01495833333,-1.957565274e-07
0.01497916667,2.498636604e-07
0.015,7.248209499e-07
0.01502083333,1.311356982e-06
0.01504166667,2.008741603e-06
0.0150625,2.787042831e-06
0.01508333333,3.575779147e-06
0.01510416667,4.307408744e-06
0.015125,4.88836622e-06
0.01514583333,5.333213721e-06
0.01516666667,5.663622233e-06
0.0151875,5.992267688e-06
0.01520833333,6.384953394e-06
0.01522916667,6.89226772e-06
0.01525,7.478267435e-06
0.01527083333,8.071451703e-06
0.01529166667,8.576133041e-06
0.0153125,8.947929928e-06
0.01533333333,9.233381206e-06
0.01535416667,9.526469512e-06
0.015375,9.871449947e-06
0.01539583333,1.034689285e-05
0.01541666667,1.084236192e-05
0.0154375,1.126080861e-05
0.01545833333,1.14967097e-05
0.01547916667,1.153506037e-05
0.0155,1.143532609e-05
0.01552083333,1.131190947e-05
0.01554166667,1.127962241e-05
0.0155625,1.135499679e-05
0.01558333333,1.150051867e-05
0.01560416667,1.162034005e-05
0.015625,1.162101216e-05
0.01564583333,1.151880042e-05
0.01566666667,1.13316155e-05
0.0156875,1.114441511e-05
0.01570833333,1.099974088e-05
0.01572916667,1.090822661e-05
0.01575,1.076854187e-05
0.01577083333,1.053149936e-05
0.01579166667,1.01573969e-05
0.0158125,9.663085621e-06
0.01583333333,9.16420413e-06
0.01585416667,8.711004739e-06
0.015875,8.335474377e-06
0.01589583333,7.992072824e-06
0.01591666667,7.570137313e-06
0.0159375,7.050247405e-06
0.01595833333,6.391622719e-06
0.01597916667,5.720643003e-06
0.016,5.088953458e-06
0.01602083333,4.568060831e-06
0.01604166667,4.097721558e-06
0.0160625,3.629076673e-06
0.01608333333,3.054216904e-06
0.01610416667,2.343426786e-06
0.016125,1.589736257e-06
0.01614583333,8.505137998e-07
0.01616666667,2.169706903e-07
0.0161875,-3.425476507e-07
0.01620833333,-8.767139548e-07
0.01622916667,-1.45475633e-06
0.01625,-2.158017878e-06
0.01627083333,-2.953148396e-06
0.01629166667,-3.819476206e-06
0.0163125,-4.638694463e-06
0.01633333333,-5.372407941e-06
0.01635416667,-5.966773188e-06
0.016375,-6.447647138e-06
0.01639583333,-6.869187928e-06
0.01641666667,-7.262276085e-06
0.0164375,-7.723129784e-06
0.01645833333,-8.257254194e-06
0.01647916667,-8.898037777e-06
0.0165,-9.517569197e-06
0.01652083333,-1.004963997e-05
0.01654166667,-1.046656598e-05
0.0165625,-1.075459386e-05
0.01658333333,-1.105450428e-05
0.01660416667,-1.136880383e-05
0.016625,-1.184154735e-05
0.01664583333,-1.234436422e-05
0.01666666667,-1.281111145e-05
0.0166875,-1.310566495e-05
0.01670833333,-1.317166516e-05
0.01672916667,-1.309103573e-05
0.01675,-1.294155118e-05
0.01677083333,-1.287042232e-05
0.01679166667,-1.295158654e-05
0.0168125,-1.313192843e-05
0.01683333333,-1.328762301e-05
0.01685416667,-1.330922623e-05
0.016875,-1.31289753e-05
0.01689583333,-1.276073272e-05
0.01691666667,-1.236649496e-05
0.0169375,-1.203414467e-05
0.01695833333,-1.188677106e-05
0.01697916667,-1.184995108e-05
0.017,-1.183654877e-05
0.01702083333,-1.165328285e-05
0.01704166667,-1.122357116e-05
0.0170625,-1.058568159e-05
0.01708333333,-9.817953469e-06
0.01710416667,-9.115484318e-06
0.017125,-8.546204299e-06
0.01714583333,-8.109873306e-06
0.01716666667,-7.707400073e-06
0.0171875,-7.1797499e-06
0.01720833333,-6.509173545e-06
0.01722916667,-5.685431461e-06
0.01725,-4.851940048e-06
0.01727083333,-4.093058578e-06
0.01729166667,-3.482932016e-06
0.0173125,-2.974689778e-06
0.01733333333,-2.487875008e-06
0.01735416667,-1.921598368e-06
0.017375,-1.198852374e-06
0.01739583333,-3.321871702e-07
0.01741666667,6.500862924e-07
0.0174375,1.661327133e-06
0.01745833333,2.578597787e-06
0.01747916667,3.374652124e-06
0.0175,4.023800557e-06
0.01752083333,4.541700946e-06
0.01754166667,5.097721441e-06
0.0175625,5.784115274e-06
0.01758333333,6.613123787e-06
0.01760416667,7.537217243e-06
0.017625,8.454474482e-06
0.01764583333,9.165362826e-06
0.01766666667,9.666419828e-06
0.0176875,1.002409863e-05
0.01770833333,1.038502432e-05
0.01772916667,1.08671311e-05
0.01775,1.151362358e-05
0.01777083333,1.224825792e-05
0.01779166667,1.287913346e-05
0.0178125,1.340303243e-05
0.01783333333,1.37111283e-05
0.01785416667,1.396754487e-05
0.017875,1.419847831e-05
0.01789583333,1.45239037e-05
0.01791666667,1.491983494e-05
0.0179375,1.53161418e-05
0.01795833333,1.567091385e-05
0.01797916667,1.588863779e-05
0.018,1.595546382e-05
0.01802083333,1.587902443e-05
0.01804166667,1.566692481e-05
0.0180625,1.548301771e-05
0.01808333333,1.526349115e-05
0.01810416667,1.514619998e-05
0.018125,1.505881755e-05
0.01814583333,1.502411942e-05
0.01816666667,1.498497841e-05
0.0181875,1.483827327e-05
0.01820833333,1.458073075e-05
0.01822916667,1.420896842e-05
0.01825,1.37650286e-05
0.01827083333,1.325118501e-05
0.01829166667,1.277705724e-05
0.0183125,1.228103883e-05
0.01833333333,1.180768868e-05
0.01835416667,1.134406102e-05
0.018375,1.071771567e-05
0.01839583333,1.001426517e-05
0.01841666667,9.166337804e-06
0.0184375,8.248667655e-06
0.01845833333,7.398691196e-06
0.01847916667,6.681208106e-06
0.0185,6.171562291e-06
0.01852083333,5.689641512e-06
0.01854166667,5.154158316e-06
0.0185625,4.33358673e-06
0.01858333333,3.354229193e-06
0.01860416667,2.250251782e-06
0.018625,1.181005132e-06
0.01864583333,3.71872261e-07
0.01866666667,-2.826435832e-07
0.0186875,-8.328697731e-07
0.01870833333,-1.521250624e-06
0.01872916667,-2.396139053e-06
0.01875,-3.490821427e-06
0.01877083333,-4.623538644e-06
0.01879166667,-5.658960163e-06
0.0188125,-6.558508176e-06
0.01883333333,-7.184643437e-06
0.01885416667,-7.779759471e-06
0.018875,-8.354571037e-06
0.01889583333,-9.014715033e-06
0.01891666667,-9.81777157e-06
0.0189375,-1.061786134e-05
0.01895833333,-1.143465033e-05
0.01897916667,-1.212657753e-05
0.019,-1.268851247e-05
0.01902083333,-1.307713501e-05
0.01904166667,-1.345770033e-05
0.0190625,-1.387939301e-05
0.01908333333,-1.440241249e-05
0.01910416667,-1.50673759e-05
0.019125,-1.575529495e-05
0.01914583333,-1.634258842e-05
0.01916666667,-1.667803008e-05
0.0191875,-1.678859553e-05
0.01920833333,-1.676190004e-05
0.01922916667,-1.66704267e-05
0.01925,-1.680510104e-05
0.01927083333,-1.705773502e-05
0.01929166667,-1.739120671e-05
0.0193125,-1.76521371e-05
0.01933333333,-1.76284484e-05
0.01935416667,-1.73253502e-05
0.019375,-1.683002301e-05
0.01939583333,-1.633012835e-05
0.01941666667,-1.599380994e-05
0.0194375,-1.591663022e-05
0.01945833333,-1.603530654e-05
0.01947916667,-1.613281893e-05
0.0195,-1.603512828e-05
0.01952083333,-1.555426024e-05
0.01954166667,-1.480711489e-05
0.0195625,-1.386018266e-05
0.01958333333,-1.301623888e-05
0.01960416667,-1.238063214e-05
0.019625,-1.198935388e-05
0.01964583333,-1.169718689e-05
0.01966666667,-1.123671427e-05
0.0196875,-1.055297344e-05
0.01970833333,-9.491691344e-06
0.01972916667,-8.287562196e-06
0.01975,-7.201706012e-06
0.01977083333,-6.351688171e-06
0.01979166667,-5.963551757e-06
0.0198125,-5.695355412e-06
0.01983333333,-5.34294486e-06
0.01985416667,-4.625587735e-06
0.019875,-3.410840691e-06
0.01989583333,-1.854187758e-06
0.01991666667,-3.033284202e-07
0.0199375,9.251997426e-07
0.01995833333,1.680043852e-06
0.01997916667,1.918640919e-06
0.02,1.805591069e-06
0.02002083333,2.367863544e-06
0.02004166667,3.333359018e-06
0.0200625,4.669464033e-06
0.02008333333,6.124828815e-06
0.02010416667,7.352888588e-06
0.020125,8.096607417e-06
0.02014583333,8.464005077e-06
0.02016666667,8.62048455e-06
0.0201875,9.055052033e-06
0.02020833333,9.959700947e-06
0.02022916667,1.114466158e-05
0.02025,1.245919611e-05
0.02027083333,1.340132621e-05
0.02029166667,1.379777677e-05
0.0203125,1.383725339e-05
0.02033333333,1.378479283e-05
0.02035416667,1.408049229e-05
0.020375,1.481500658e-05
0.02039583333,1.590420652e-05
0.02041666667,1.685907773e-05
0.0204375,1.755074481e-05
0.02045833333,1.778693513e-05
0.02047916667,1.759869883e-05
0.0205,1.732504279e-05
0.02052083333,1.711387449e-05
0.02054166667,1.716387487e-05
0.0205625,1.731864722e-05
0.02058333333,1.757534847e-05
0.02060416667,1.764501394e-05
0.020625,1.757497193e-05
0.02064583333,1.73385688e-05
0.02066666667,1.683888149e-05
0.0206875,1.651851562e-05
0.02070833333,1.61592161e-05
0.02072916667,1.602944758e-05
0.02075,1.598749259e-05
0.02077083333,1.583334415e-05
0.02079166667,1.557328324e-05
0.0208125,1.518154113e-05
0.02083333333,1.475906447e-05
0.02085416667,1.438120671e-05
0.020875,1.410961704e-05
0.02089583333,1.387205521e-05
0.02091666667,1.357700603e-05
0.0209375,1.322277603e-05
0.02095833333,1.268389497e-05
0.02097916667,1.193138269e-05
0.021,1.095393782e-05
0.02102083333,9.857151781e-06
0.02104166667,8.705671462e-06
0.0210625,7.665923476e-06
0.02108333333,6.551118076e-06
0.02110416667,5.496435278e-06
0.021125,4.543725026e-06
0.02114583333,3.528649131e-06
0.02116666667,2.393261866e-06
0.0211875,9.873863291e-07
0.02120833333,-3.545745244e-07
0.02122916667,-1.551981427e-06
0.02125,-2.375132226e-06
0.02127083333,-2.755685273e-06
0.02129166667,-2.909397836e-06
0.0213125,-3.175530992e-06
0.02133333333,-3.678018857e-06
0.02135416667,-4.387904937e-06
0.021375,-5.272752333e-06
0.02139583333,-6.103349733e-06
0.02141666667,-6.910147931e-06
0.0214375,-7.54246139e-06
0.02145833333,-8.123782209e-06
0.02147916667,-8.932816854e-06
0.0215,-9.709685401e-06
0.02152083333,-1.056051224e-05
0.02154166667,-1.136901756e-05
0.0215625,-1.218783837e-05
0.02158333333,-1.314552446e-05
0.02160416667,-1.415066436e-05
0.021625,-1.502875693e-05
0.02164583333,-1.552029789e-05
0.02166666667,-1.58266721e-05
0.0216875,-1.568267362e-05
0.02170833333,-1.56272763e-05
0.02172916667,-1.563142905e-05
0.02175,-1.585683822e-05
0.02177083333,-1.596260336e-05
0.02179166667,-1.559628799e-05
0.0218125,-1.488981252e-05
0.02183333333,-1.404482373e-05
0.02185416667,-1.330816394e-05
0.021875,-1.309378968e-05
0.02189583333,-1.327743666e-05
0.02191666667,-1.38802925e-05
0.0219375,-1.47834935e-05
0.02195833333,-1.532346141e-05
0.02197916667,-1.561481986e-05
0.022,-1.564421837e-05
0.02202083333,-1.519572925e-05
0.02204166667,-1.459117175e-05
0.0220625,-1.415674342e-05
0.02208333333,-1.379262358e-05
0.02210416667,-1.383231393e-05
0.022125,-1.405748662e-05
0.02214583333,-1.372028782e-05
0.02216666667,-1.325552239e-05
0.0221875,-1.184169105e-05
0.02220833333,-9.936396964e-06
0.02222916667,-7.850198017e-06
0.02225,-5.893766684e-06
0.02227083333,-5.149678145e-06
0.02229166667,-5.589519787e-06
0.0223125,-6.667319212e-06
0.02233333333,-7.331246707e-06
0.02235416667,-6.987338111e-06
0.022375,-5.168385542e-06
0.02239583333,-2.106468401e-06
0.02241666667,6.090519946e-07
0.0224375,2.1521505e-06
0.02245833333,2.007340981e-06
0.02247916667,7.956093668e-07
0.0225,-5.85808948e-08
0.02252083333,2.519429927e-07
0.02254166667,1.915319444e-06
0.0225625,4.093251391e-06
0.02258333333,6.232473424e-06
0.02260416667,7.645140613e-06
0.022625,8.286094271e-06
0.02264583333,8.688139133e-06
0.02266666667,9.207662515e-06
0.0226875,9.911770576e-06
0.02270833333,1.049702587e-05
0.02272916667,1.111079109e-05
0.02275,1.198783411e-05
0.02277083333,1.327111386e-05
0.02279166667,1.471130508e-05
0.0228125,1.574782436e-05
0.02283333333,1.626507219e-05
0.02285416667,1.572348265e-05
0.022875,1.462875844e-05
0.02289583333,1.412366964e-05
0.02291666667,1.439089647e-05
0.0229375,1.527824861e-05
0.02295833333,1.633312058e-05
0.02297916667,1.676493775e-05
0.023,1.630193947e-05
0.02302083333,1.551156311e-05
0.02304166667,1.501344104e-05
0.0230625,1.522904222e-05
0.02308333333,1.589157182e-05
0.02310416667,1.610920117e-05
0.023125,1.570217864e-05
0.02314583333,1.470044663e-05
0.02316666667,1.362322655e-05
0.0231875,1.258064094e-05
0.02320833333,1.298839379e-05
0.02322916667,1.358189093e-05
0.02325,1.412909114e-05
0.02327083333,1.398968834e-05
0.02329166667,1.327275186e-05
0.0233125,1.239306948e-05
0.02333333333,1.188222632e-05
0.02335416667,1.236759454e-05
0.023375,1.350033199e-05
0.02339583333,1.472171243e-05
0.02341666667,1.529486872e-05
0.0234375,1.516606972e-05
0.02345833333,1.431843521e-05
0.02347916667,1.294820686e-05
0.0235,1.151575816e-05
0.02352083333,9.454726751e-06
0.02354166667,7.302572612e-06
0.0235625,5.147557204e-06
0.02358333333,3.221899078e-06
0.02360416667,1.69886107e-06
0.023625,1.035913556e-06
0.02364583333,6.499999472e-07
0.02366666667,1.441603672e-07
0.0236875,-6.234630519e-07
0.02370833333,-2.996019703e-06
0.02372916667,-5.378922651e-06
0.02375,-7.496481885e-06
0.02377083333,-8.421962775e-06
0.02379166667,-8.63398509e-06
0.0238125,-8.231514585e-06
0.02383333333,-9.46484306e-06
0.02385416667,-1.124229129e-05
0.023875,-1.315663394e-05
0.02389583333,-1.458803308e-05
0.02391666667,-1.445874659e-05
0.0239375,-1.397459528e-05
0.02395833333,-1.381020684e-05
0.02397916667,-1.489870374e-05
0.024,-1.692773185e-05
0.02402083333,-1.912048174e-05
0.02404166667,-2.029981624e-05
0.0240625,-2.036272235e-05
0.02408333333,-1.989107841e-05
0.02410416667,-1.895785681e-05
0.024125,-1.90372939e-05
0.02414583333,-1.974609768e-05
0.02416666667,-2.094326919e-05
0.0241875,-2.228012818e-05
0.02420833333,-2.354977551e-05
0.02422916667,-2.484397737e-05
0.02425,-2.552429942e-05
0.02427083333,-2.553633567e-05
0.02429166667,-2.476512782e-05
0.0243125,-2.386243068e-05
0.02433333333,-2.31697195e-05
0.02435416667,-2.286202289e-05
0.024375,-2.329980634e-05
0.02439583333,-2.357004632e-05
0.02441666667,-2.323533772e-05
0.0244375,-2.267149466e-05
0.02445833333,-2.222946569e-05
0.02447916667,-2.246897566e-05
0.0245,-2.325473542e-05
0.02452083333,-2.425455932e-05
0.02454166667,-2.371329174e-05
0.0245625,-2.299112384e-05
0.02458333333,-2.140726065e-05
0.02460416667,-1.959396468e-05
0.024625,-1.793481169e-05
0.02464583333,-1.6686241e-05
0.02466666667,-1.577954754e-05
0.0246875,-1.509394315e-05
0.02470833333,-1.482153766e-05
0.02472916667,-1.46914972e-05
0.02475,-1.431754572e-05
0.02477083333,-1.316781527e-05
0.02479166667,-1.214199438e-05
0.0248125,-1.129131488e-05
0.02483333333,-1.132602119e-05
0.02485416667,-1.219735896e-05
0.024875,-1.379721107e-05
0.02489583333,-1.369299298e-05
0.02491666667,-1.133773276e-05
0.0249375,-7.727586308e-06
0.02495833333,-2.796869239e-06
0.02497916667,2.034362524e-06
0.025,5.961500847e-06
0.02502083333,9.85740644e-06
0.02504166667,1.276758212e-05
0.0250625,1.493321543e-05
0.02508333333,1.690332283e-05
0.02510416667,1.856910239e-05
0.025125,2.020030479e-05
0.02514583333,2.316363134e-05
0.02516666667,2.56186504e-05
0.0251875,2.710208719e-05
0.02520833333,2.79296728e-05
0.02522916667,2.653642514e-05
0.02525,2.636404679e-05
0.02527083333,2.7241309e-05
0.02529166667,2.930330447e-05
0.0253125,2.971870344e-05
0.02533333333,2.904145003e-05
0.02535416667,2.655395838e-05
0.025375,2.421325917e-05
0.02539583333,2.387081258e-05
0.02541666667,2.70864366e-05
0.0254375,3.177153485e-05
0.02545833333,3.728617594e-05
0.02547916667,3.979275425e-05
0.0255,4.01007419e-05
0.02552083333,3.828895569e-05
0.02554166667,3.760185427e-05
0.0255625,3.660400034e-05
0.02558333333,3.665480835e-05
0.02560416667,3.64321204e-05
0.025625,3.504814958e-05
0.02564583333,3.43154461e-05
0.02566666667,3.413524246e-05
0.0256875,3.438416752e-05
0.02570833333,3.297778312e-05
0.02572916667,2.896871229e-05
0.02575,2.394683906e-05
0.02577083333,1.986020288e-05
0.02579166667,1.908681588e-05
0.0258125,2.307866089e-05
0.02583333333,2.92213208e-05
0.02585416667,3.616762842e-05
0.025875,4.129085573e-05
0.02589583333,4.427312888e-05
0.02591666667,4.406890002e-05
0.0259375,4.265071766e-05
0.02595833333,4.229495971e-05
0.02597916667,4.081382212e-05
0.026,3.786308298e-05
0.02602083333,3.509813178e-05
0.02604166667,3.215305333e-05
0.0260625,2.783601121e-05
0.02608333333,2.393108844e-05
0.02610416667,1.953104947e-05
0.026125,1.632926796e-05
0.02614583333,1.272977624e-05
0.02616666667,1.037343645e-05
0.0261875,7.51512016e-06
0.02620833333,4.328079285e-06
0.02622916667,9.088546449e-07
0.02625,-6.015284271e-08
0.02627083333,5.545648492e-07
0.02629166667,4.380705832e-06
0.0263125,6.962523912e-06
0.02633333333,9.289113223e-06
0.02635416667,7.653711691e-06
0.026375,6.290748388e-06
0.02639583333,5.42761336e-06
0.02641666667,7.459085282e-06
0.0264375,8.996484212e-06
0.02645833333,1.108581364e-05
0.02647916667,9.019476238e-06
0.0265,5.742476787e-06
0.02652083333,1.34000129e-06
0.02654166667,-5.871352187e-07
0.0265625,-1.38372161e-06
0.02658333333,-2.118852535e-06
0.02660416667,-4.309979886e-06
0.026625,-7.838378224e-06
0.02664583333,-1.039177823e-05
0.02666666667,-9.067487554e-06
0.0266875,-5.542252893e-06
0.02670833333,-1.149914169e-06
0.02672916667,1.987509677e-07
0.02675,-7.928929335e-07
0.02677083333,-1.665818672e-06
0.02679166667,2.65043218e-06
0.0268125,1.109900313e-05
0.02683333333,2.086869426e-05
0.02685416667,2.72505913e-05
0.026875,2.677974953e-05
0.02689583333,2.164269608e-05
0.02691666667,1.548538239e-05
0.0269375,1.136855462e-05
0.02695833333,1.085633994e-05
0.02697916667,9.377038623e-06
0.027,4.836984772e-06
0.02702083333,-2.168944775e-07
0.02704166667,-5.459487511e-07
0.0270625,1.813285962e-06
0.02708333333,9.862598745e-06
0.02710416667,1.676332249e-05
0.027125,2.093715739e-05
0.02714583333,1.984031769e-05
0.02716666667,1.706190233e-05
0.0271875,1.596560105e-05
0.02720833333,1.824982246e-05
0.02722916667,2.240853064e-05
0.02725,2.822263559e-05
0.02727083333,3.134589497e-05
0.02729166667,3.151944475e-05
0.0273125,2.654888704e-05
0.02733333333,1.877629256e-05
0.02735416667,8.423002328e-06
0.027375,1.406535375e-06
0.02739583333,-2.181712489e-06
0.02741666667,1.252294169e-06
0.0274375,7.042961442e-06
0.02745833333,1.552073627e-05
0.02747916667,2.00083141e-05
0.0275,2.515930828e-05
0.02752083333,2.853572732e-05
0.02754166667,3.544697029e-05
0.0275625,4.137333963e-05
0.02758333333,4.587974399e-05
0.02760416667,4.386815272e-05
0.027625,4.02416008e-05
0.02764583333,4.025878297e-05
0.02766666667,4.565450581e-05
0.0276875,5.34251958e-05
0.02770833333,5.903914644e-05
0.02772916667,5.699424219e-05
0.02775,4.909929703e-05
0.02777083333,3.844283128e-05
0.02779166667,3.324421414e-05
0.0278125,3.304794154e-05
0.02783333333,3.707289579e-05
0.02785416667,3.494804696e-05
0.027875,2.396303535e-05
0.02789583333,1.107647313e-05
0.02791666667,4.715310297e-06
0.0279375,1.244870055e-05
0.02795833333,3.154871229e-05
0.02797916667,4.711142537e-05
0.028,5.060134936e-05
0.02802083333,4.484952296e-05
0.02804166667,3.20043182e-05
0.0280625,2.317114559e-05
0.02808333333,2.322436012e-05
0.02810416667,2.779381794e-05
0.028125,3.433216625e-05
0.02814583333,3.745141294e-05
0.02816666667,3.87422624e-05
0.0281875,3.837545592e-05
0.02820833333,3.368707985e-05
0.02822916667,2.059729923e-05
0.02825,-8.921442713e-07
0.02827083333,-2.229180791e-05
0.02829166667,-3.274635674e-05
0.0283125,-2.475656402e-05
0.02833333333,-1.016687747e-07
0.02835416667,2.82714027e-05
0.028375,5.25945652e-05
0.02839583333,5.995249012e-05
0.02841666667,5.515957309e-05
0.0284375,3.942747571e-05
0.02845833333,2.614100958e-05
0.02847916667,1.963341128e-05
0.0285,2.162619421e-05
0.02852083333,2.385204425e-05
0.02854166667,2.026517541e-05
0.0285625,1.058686121e-05
0.02858333333,-4.089350114e-06
0.02860416667,-2.174738984e-05
0.028625,-3.177527105e-05
0.02864583333,-3.154745355e-05
0.02866666667,-2.265143121e-05
0.0286875,-1.641119525e-05
0.02870833333,-2.046822374e-05
0.02872916667,-4.117591379e-05
0.02875,-7.06375431e-05
0.02877083333,-8.823866665e-05
0.02879166667,-9.495307313e-05
0.0288125,-8.412487659e-05
0.02883333333,-7.33980487e-05
0.02885416667,-7.20705284e-05
0.028875,-8.367493137e-05
0.02889583333,-0.0001004218357
0.02891666667,-0.0001101308153
0.0289375,-0.0001075019391
0.02895833333,-9.543587657e-05
0.02897916667,-9.92491623e-05
0.029,-0.0001169686002
0.02902083333,-0.0001302939781
0.02904166667,-0.0001343681943
0.0290625,-0.0001130320525
0.02908333333,-8.983148291e-05
0.02910416667,-7.512157026e-05
0.029125,-9.672784654e-05
0.02914583333,-0.0001318322174
0.02916666667,-0.0001631827181
0.0291875,-0.0001765072666
0.02920833333,-0.0001650907798
0.02922916667,-0.0001571972825
0.02925,-0.0001624723955
0.02927083333,-0.0001837042219
0.02929166667,-0.0002029159659
0.0293125,-0.0002008966549
0.02933333333,-0.0001775448764
0.02935416667,-0.000144616497
0.029375,-0.0001418868051
0.02939583333,-0.0001574062626
0.02941666667,-0.0001742833992
0.0294375,-0.0001747620117
0.02945833333,-0.0001559507218
0.02947916667,-0.0001525038097
0.0295,-0.0001687105978
0.02952083333,-0.0002165007609
0.02954166667,-0.0002610370284
0.0295625,-0.0002500969858
0.02958333333,-0.000151869448
0.02960416667,-7.606869985e-06
0.029625,0.0001088236822
0.02964583333,0.0001343308249
0.02966666667,6.922750617e-05
0.0296875,-5.135036554e-05
0.02970833333,-0.0001377970912
0.02972916667,-0.0001709634962
0.02975,-0.0001381291222
0.02977083333,-0.0001103397881
0.02979166667,-8.04923402e-05
0.0298125,-6.63934843e-05
0.02983333333,-2.517778375e-05
0.02985416667,3.454248144e-06
0.029875,-1.814085044e-05
0.02989583333,-0.0001110757148
0.02991666667,-0.0002705624211
0.0299375,-0.0004401060578
0.02995833333,-0.0004406414519
0.02997916667,-0.0003767775488
0.03,0.0005433024489
0.03002083333,0.0006089893286
0.03004166667,0.0006105009816
0.0300625,0.0004327147035
0.03008333333,0.0002684002393
0.03010416667,0.0001665748132
0.030125,0.0001457197941
0.03014583333,0.0001747201895
0.03016666667,0.000217998866
0.0301875,0.0002318676561
0.03020833333,0.0002611793461
0.03022916667,0.0002912420896
0.03025,0.0003243256942
0.03027083333,0.0002907071903
0.03029166667,0.0001956309425
0.0303125,6.04473571e-05
0.03033333333,-1.190052717e-05
0.03035416667,2.049790965e-05
0.030375,0.0001534553157
0.03039583333,0.0003246526758
0.03041666667,0.0004401722981
0.0304375,0.000459271454
0.03045833333,0.0004056842881
0.03047916667,0.0003472117241
0.0305,0.0003253443574
0.03052083333,0.0003246895794
0.03054166667,0.0003475458943
0.0305625,0.0003501217288
0.03058333333,0.0003332724737
0.03060416667,0.0003198531922
0.030625,0.0003195062163
0.03064583333,0.0003601686913
0.03066666667,0.0003818456316
0.0306875,0.0003797761456
0.03070833333,0.0003457180574
0.03072916667,0.000314573379
0.03075,0.0003078465525
0.03077083333,0.0003197042388
0.03079166667,0.0003429232747
0.0308125,0.0003261756501
0.03083333333,0.000287262752
0.03085416667,0.0002362879168
0.030875,0.0002043624554
0.03089583333,0.000218148969
0.03091666667,0.0002543471928
0.0309375,0.0002902373089
0.03095833333,0.0002884829591
0.03097916667,0.0002818756329
0.031,0.0002616368001
0.03102083333,0.0002599574218
0.03104166667,0.0002761898795
0.0310625,0.0002740036871
0.03108333333,0.0002559711866
0.03110416667,0.0002280026965
0.031125,0.0002074400691
0.03114583333,0.00020573847
0.03116666667,0.0002169143409
0.0311875,0.0002288112155
0.03120833333,0.0002074100048
0.03122916667,0.0001753389661
0.03125,0.0001325146877
0.03127083333,0.0001003797297
0.03129166667,9.749866877e-05
0.0313125,0.0001137707804
0.03133333333,0.0001312163513
0.03135416667,0.0001277183765
0.031375,0.000113448732
0.03139583333,8.76671329e-05
0.03141666667,6.903367466e-05
0.0314375,6.683277024e-05
0.03145833333,7.418804307e-05
0.03147916667,8.111740317e-05
0.0315,9.006346227e-05
0.03152083333,7.379511953e-05
0.03154166667,5.056933514e-05
0.0315625,1.301415159e-05
0.03158333333,2.418812073e-06
0.03160416667,6.742961887e-07
0.031625,4.265048483e-05
0.03164583333,8.541517309e-05
0.03166666667,0.0001344754855
0.0316875,0.000149963962
0.03170833333,0.0001362145849
0.03172916667,8.260883624e-05
0.03175,3.768971146e-05
0.03177083333,-1.106064701e-06
0.03179166667,-1.875727321e-05
0.0318125,-3.677402447e-06
0.03183333333,1.11229042e-07
0.03185416667,2.666175169e-05
0.031875,5.406149285e-05
0.03189583333,5.826671259e-05
0.03191666667,4.284009628e-05
0.0319375,3.693202234e-05
0.03195833333,8.69604628e-06
0.03197916667,-1.308163178e-06
0.032,-7.530621815e-08
0.03202083333,2.626612695e-05
0.03204166667,6.275488704e-05
0.0320625,8.148219058e-05
0.03208333333,7.328856009e-05
0.03210416667,4.230257036e-05
0.032125,8.024643648e-06
0.03214583333,-1.705875184e-05
0.03216666667,-2.725762715e-05
0.0321875,-4.15073664e-05
0.03220833333,-3.947262667e-05
0.03222916667,-5.863861224e-05
0.03225,-6.562835188e-05
0.03227083333,-8.058830281e-05
0.03229166667,-8.068486932e-05
0.0323125,-7.649166946e-05
0.03233333333,-6.955485878e-05
0.03235416667,-7.077436021e-05
0.032375,-8.179850556e-05
0.03239583333,-0.0001011534696
0.03241666667,-9.626036626e-05
0.0324375,-8.367408009e-05
0.03245833333,-5.486307782e-05
0.03247916667,-4.144663035e-05
0.0325,-2.180186857e-05
0.03252083333,-2.219737507e-05
0.03254166667,-1.76335343e-05
0.0325625,-1.075301589e-05
0.03258333333,-1.076635635e-05
0.03260416667,-1.035101559e-05
0.032625,-2.735402632e-05
0.03264583333,-5.661637988e-05
0.03266666667,-9.78797616e-05
0.0326875,-0.00012111463
0.03270833333,-0.0001366065553
0.03272916667,-0.0001400024921
0.03275,-0.0001315089175
0.03277083333,-0.0001278340787
0.03279166667,-0.0001454717712
0.0328125,-0.000172185275
0.03283333333,-0.0001777955913
0.03285416667,-0.0001816546574
0.032875,-0.0001459283521
0.03289583333,-9.547776426e-05
0.03291666667,-8.967747272e-05
0.0329375,-7.139983063e-05
0.03295833333,-7.83065334e-05
0.03297916667,-7.753846876e-05
0.033,-7.785979687e-05
0.03302083333,-8.395701298e-05
0.03304166667,-8.207977226e-05
0.0330625,-0.0001039105045
0.03308333333,-0.0001245353924
0.03310416667,-0.0001352459076
0.033125,-0.0001304931066
0.03314583333,-0.0001103813047
0.03316666667,-8.138614794e-05
0.0331875,-7.427883975e-05
0.03320833333,-8.703614003e-05
0.03322916667,-8.449416782e-05
0.03325,-9.327336738e-05
0.03327083333,-6.669849972e-05
0.03329166667,-4.201412958e-05
0.0333125,-1.201715349e-05
0.03333333333,-1.173637793e-05
0.03335416667,-1.974530096e-05
0.033375,-3.018520692e-05
0.03339583333,-3.119933535e-05
0.03341666667,-2.132504778e-05
0.0334375,-6.296002539e-06
0.03345833333,-1.849373803e-06
0.03347916667,1.193645949e-05
0.0335,2.164459511e-05
0.03352083333,3.519385791e-05
0.03354166667,4.716366311e-05
0.0335625,5.136240725e-05
0.03358333333,5.960776252e-05
0.03360416667,5.707475793e-05
0.033625,5.455899736e-05
0.03364583333,5.334624802e-05
0.03366666667,7.439571345e-05
0.0336875,8.741956844e-05
0.03370833333,9.938752919e-05
0.03372916667,9.598932957e-05
0.03375,7.889223343e-05
0.03377083333,6.25608518e-05
0.03379166667,4.051061842e-05
0.0338125,2.084159496e-05
0.03383333333,3.4722907e-05
0.03385416667,1.389827958e-05
0.033875,4.455895032e-05
0.03389583333,6.334061618e-05
0.03391666667,6.692609168e-05
0.0339375,7.501998334e-05
0.03395833333,4.064448149e-05
0.03397916667,4.278241249e-05
0.034,2.515334199e-05
0.03402083333,2.542002039e-05
0.03404166667,2.839363879e-05
0.0340625,1.795288699e-05
0.03408333333,2.659764141e-05
0.03410416667,3.412809019e-05
0.034125,4.912158329e-05
0.03414583333,7.508384442e-05
0.03416666667,8.24448216e-05
0.0341875,7.784715126e-05
0.03420833333,5.411617167e-05
0.03422916667,1.645999509e-05
0.03425,-1.233128933e-05
0.03427083333,-2.946843779e-05
0.03429166667,-3.578954056e-05
0.0343125,-4.6838868e-05
0.03433333333,-5.901905388e-05
0.03435416667,-7.356621791e-05
0.034375,-8.883330884e-05
0.03439583333,-9.539761231e-05
0.03441666667,-9.406103345e-05
0.0344375,-0.0001089382422
0.03445833333,-0.0001225874876
0.03447916667,-0.0001441301138
0.0345,-0.0001546018757
0.03452083333,-0.0001543856342
0.03454166667,-0.0001219464903
0.0345625,-0.0001039769704
0.03458333333,-8.397607598e-05
0.03460416667,-8.843498654e-05
0.034625,-0.0001191006158
0.03464583333,-0.0001465622627
0.03466666667,-0.0001768044021
0.0346875,-0.00021041726
0.03470833333,-0.0002335126919
0.03472916667,-0.000263846101
0.03475,-0.0002727663377
0.03477083333,-0.0002840291127
0.03479166667,-0.0002802450908
0.0348125,-0.0002681805054
0.03483333333,-0.0002762190998
0.03485416667,-0.0002749405394
0.034875,-0.0003134675208
0.03489583333,-0.0003332236374
0.03491666667,-0.0003341240808
0.0349375,-0.0003097535227
0.03495833333,-0.0002555307001
0.03497916667,-0.0002153055684
0.035,-0.000189692626
0.03502083333,-0.0001775526616
0.03504166667,-0.0001648893376
0.0350625,-0.0001497438207
0.03508333333,-0.0001498653291
0.03510416667,-0.0001582815748
0.035125,-0.0001627355668
0.03514583333,-0.0001735924016
0.03516666667,-0.0001803267223
0.0351875,-0.0001776591234
0.03520833333,-0.0001790774113
0.03522916667,-0.000188479491
0.03525,-0.0002167505445
0.03527083333,-0.0002443785488
0.03529166667,-0.0002679088211
0.0353125,-0.0002642762265
0.03533333333,-0.0002665382053
0.03535416667,-0.0002615916601
0.035375,-0.0002630464151
0.03539583333,-0.0002629767405
0.03541666667,-0.0002471544722
0.0354375,-0.0002351537696
0.03545833333,-0.000216962304
0.03547916667,-0.0002031014155
0.0355,-0.0001975451887
0.03552083333,-0.0001851579436
0.03554166667,-0.0001758787839
0.0355625,-0.0001697621919
0.03558333333,-0.0001771448151
0.03560416667,-0.000179991519
0.035625,-0.0001909372368
0.03564583333,-0.0002066651214
0.03566666667,-0.0002149670909
0.0356875,-0.0002168915962
0.03570833333,-0.0002169056679
0.03572916667,-0.0002325307287
0.03575,-0.0002464650024
0.03577083333,-0.0002600949083
0.03579166667,-0.0002769209095
0.0358125,-0.0002923597058
0.03583333333,-0.0002987114422
0.03585416667,-0.0002979332057
0.035875,-0.0002880630491
0.03589583333,-0.0002690149995
0.03591666667,-0.0002551746729
0.0359375,-0.0002432231267
0.03595833333,-0.0002486089943
0.03597916667,-0.000257631822
0.036,-0.0002644852793
0.03602083333,-0.000276910956
0.03604166667,-0.0002661702165
0.0360625,-0.0002617448918
0.03608333333,-0.0002656010329
0.03610416667,-0.0002648708469
0.036125,-0.0002594646649
0.03614583333,-0.0002736205934
0.03616666667,-0.000283669855
0.0361875,-0.0003097688023
0.03620833333,-0.0003204369568
0.03622916667,-0.0003450326622
0.03625,-0.0003595774178
0.03627083333,-0.0003847212647
0.03629166667,-0.0004048999399
0.0363125,-0.0004040629428
0.03633333333,-0.0004136540229
0.03635416667,-0.0004223569995
0.036375,-0.0004348849179
0.03639583333,-0.0004611393088
0.03641666667,-0.0004703880404
0.0364375,-0.0004849357938
0.03645833333,-0.0004649941111
0.03647916667,-0.0004464582598
0.0365,-0.0004338217841
0.03652083333,-0.0004135665949
0.03654166667,-0.0004177057417
0.0365625,-0.00042385509
0.03658333333,-0.0004260037094
0.03660416667,-0.0004175582435
0.036625,-0.0004072501033
0.03664583333,-0.000396277348
0.03666666667,-0.0003977344313
0.0366875,-0.0004171630135
0.03670833333,-0.0004420675396
0.03672916667,-0.0004596963408
0.03675,-0.0004723597085
0.03677083333,-0.0004787382204
0.03679166667,-0.0004850083496
0.0368125,-0.0005070834886
0.03683333333,-0.0005150967045
0.03685416667,-0.0005088205799
0.036875,-0.0005068846513
0.03689583333,-0.0004843636416
0.03691666667,-0.0004709867644
0.0369375,-0.0004711685469
0.03695833333,-0.0004771015956
0.03697916667,-0.000486156845
0.037,-0.0004927894333
0.03702083333,-0.0005062509445
0.03704166667,-0.0004849286051
0.0370625,-0.0005077620735
0.03708333333,-0.0005168853677
0.03710416667,-0.0005423456896
0.037125,-0.0005735956365
0.03714583333,-0.0005819203798
0.03716666667,-0.0006100343307
0.0371875,-0.0006300497334
0.03720833333,-0.0006420678692
0.03722916667,-0.0006664933171
0.03725,-0.0006880628644
0.03727083333,-0.0007065734244
0.03729166667,-0.0007216713857
0.0373125,-0.0007084716344
0.03733333333,-0.0007000562618
0.03735416667,-0.0006865948671
0.037375,-0.0007061397191
0.03739583333,-0.0007187651936
0.03741666667,-0.0007204834255
0.0374375,-0.0007013556315
0.03745833333,-0.0006808607723
0.03747916667,-0.0006536039291
0.0375,-0.0006555969594
0.03752083333,-0.000654858537
0.03754166667,-0.000653589319
0.0375625,-0.000640352664
0.03758333333,-0.0006233257009
0.03760416667,-0.0006207191618
0.037625,-0.0006338764215
0.03764583333,-0.0006683086976
0.03766666667,-0.0006869025528
0.0376875,-0.0006994864088
0.03770833333,-0.0007036364987
0.03772916667,-0.0006939629093
0.03775,-0.0006721491227
0.03777083333,-0.0006750156172
0.03779166667,-0.0006575122825
0.0378125,-0.0006598199834
0.03783333333,-0.0006453898968
0.03785416667,-0.0006207617116
0.037875,-0.0006342170527
0.03789583333,-0.0006038339343
0.03791666667,-0.0006069882074
0.0379375,-0.00059693394
0.03795833333,-0.0005894042552
0.03797916667,-0.0005776521866
0.038,-0.0005745210219
0.03802083333,-0.0005837932695
0.03804166667,-0.0005847137654
0.0380625,-0.0005861250684
0.03808333333,-0.0005876029027
0.03810416667,-0.0005911161425
0.038125,-0.0005897977971
0.03814583333,-0.000580198539
0.03816666667,-0.0005820583901
0.0381875,-0.000570394448
0.03820833333,-0.0005656797439
0.03822916667,-0.0005619041622
0.03825,-0.0005830115406
0.03827083333,-0.0005930697662
0.03829166667,-0.0005861850805
0.0383125,-0.0005669246311
0.03833333333,-0.00055435166
0.03835416667,-0.0005678646849
0.038375,-0.0005538582336
0.03839583333,-0.0005452437326
0.03841666667,-0.0005403906689
0.0384375,-0.0005283527425
0.03845833333,-0.0005061092088
0.03847916667,-0.0004931157455
0.0385,-0.0004771754902
0.03852083333,-0.0004734706599
0.03854166667,-0.0004522335948
0.0385625,-0.0004363210173
0.03858333333,-0.0004475763417
0.03860416667,-0.0004700175195
0.038625,-0.0004982204991
0.03864583333,-0.0005264752544
0.03866666667,-0.0005507136812
0.0386875,-0.0005693754065
0.03870833333,-0.0005778854247
0.03872916667,-0.0005620736047
0.03875,-0.0005883019185
0.03877083333,-0.0005855695927
0.03879166667,-0.0005774243036
0.0388125,-0.0006032912061
0.03883333333,-0.0006106935325
0.03885416667,-0.0006200578646
0.038875,-0.0006133675925
0.03889583333,-0.0006266533746
0.03891666667,-0.0006281088572
0.0389375,-0.0006308822194
0.03895833333,-0.0006038115826
0.03897916667,-0.0006043023313
0.039,-0.0006204691599
0.03902083333,-0.0006248562713
0.03904166667,-0.0006672989111
0.0390625,-0.0006688823923
0.03908333333,-0.000686122803
0.03910416667,-0.000682695827
0.039125,-0.0006679568323
0.03914583333,-0.0006458988064
0.03916666667,-0.0006589609548
0.0391875,-0.000662955048
0.03920833333,-0.00069726113
0.03922916667,-0.0007194360369
0.03925,-0.0007349509397
0.03927083333,-0.0007451085257
0.03929166667,-0.0007602198166
0.0393125,-0.0007784464397
0.03933333333,-0.0007765325718
0.03935416667,-0.0007702424773
0.039375,-0.0007547909627
0.03939583333,-0.0007688362384
0.03941666667,-0.0007669640472
0.0394375,-0.0007638869574
0.03945833333,-0.0007509759162
0.03947916667,-0.00074085081
0.0395,-0.000725659891
0.03952083333,-0.0007292357623
0.03954166667,-0.0007532213349
0.0395625,-0.0007754741819
0.03958333333,-0.000801217393
0.03960416667,-0.0008248824161
0.039625,-0.0008367883856
0.03964583333,-0.0008576515829
0.03966666667,-0.0008659935556
0.0396875,-0.0008904212154
0.03970833333,-0.000932957686
0.03972916667,-0.0009674307657
0.03975,-0.00101589039
0.03977083333,-0.001031996915
0.03979166667,-0.001045028097
0.0398125,-0.001034533605
0.03983333333,-0.00101835723
0.03985416667,-0.001007448533
0.039875,-0.001014889567
0.03989583333,-0.001010093372
0.03991666667,-0.001013449277
0.0399375,-0.001033737557
0.03995833333,-0.001007524552
0.03997916667,-0.001003436628
0.04,-0.0009669454885
0.04002083333,-0.000944774074
0.04004166667,-0.0009156132583
0.0400625,-0.0008824895485
0.04008333333,-0.0008851239691
0.04010416667,-0.0008694834542
0.040125,-0.0008768176194
0.04014583333,-0.000901331834
0.04016666667,-0.0009072102839
0.0401875,-0.0009226747788
0.04020833333,-0.0009138538735
0.04022916667,-0.0009166910895
0.04025,-0.0008992982912
0.04027083333,-0.0009061596938
0.04029166667,-0.00089898234
0.0403125,-0.0008667181828
0.04033333333,-0.0008595460095
0.04035416667,-0.0008358859923
0.040375,-0.0008386170957
0.04039583333,-0.0008256317233
0.04041666667,-0.0008212823886
0.0404375,-0.0007689140621
0.04045833333,-0.0007311540539
0.04047916667,-0.0006810468622
0.0405,-0.0006601227797
0.04052083333,-0.0006317488151
0.04054166667,-0.0006594355218
0.0405625,-0.0006530770333
0.04058333333,-0.0006844647578
0.04060416667,-0.0006946432404
0.040625,-0.0006846219185
0.04064583333,-0.0006748065352
0.04066666667,-0.0006373929791
0.0406875,-0.0006062687025
0.04070833333,-0.0006047648494
0.04072916667,-0.0006149035762
0.04075,-0.0006180091877
0.04077083333,-0.0006150376284
0.04079166667,-0.0006163423532
0.0408125,-0.0005924502038
0.04083333333,-0.0005973654916
0.04085416667,-0.0005661925534
0.040875,-0.0005502841668
0.04089583333,-0.0005454596248
0.04091666667,-0.0005300050834
0.0409375,-0.0005640895106
0.04095833333,-0.0005682817427
0.04097916667,-0.0005785436369
0.041,-0.0005444849376
0.04102083333,-0.0005550800706
0.04104166667,-0.0005542524159
0.0410625,-0.0005455386126
0.04108333333,-0.0005598453572
0.04110416667,-0.0005909922183
0.041125,-0.0006178541225
0.04114583333,-0.0006739530363
0.04116666667,-0.0007415068103
0.0411875,-0.0007712676888
0.04120833333,-0.0007888332475
0.04122916667,-0.0008187193889
0.04125,-0.0008584091556
0.04127083333,-0.0008806200931
0.04129166667,-0.000925725617
0.0413125,-0.0009535254212
0.04133333333,-0.0009769024327
0.04135416667,-0.0009892361704
0.041375,-0.0009995452128
0.04139583333,-0.001010843553
0.04141666667,-0.001017450006
0.0414375,-0.001013050438
0.04145833333,-0.0009948965162
0.04147916667,-0.0009881325532
0.0415,-0.0009643228841
0.04152083333,-0.001017015311
0.04154166667,-0.001035675174
0.0415625,-0.001092901919
0.04158333333,-0.001109128934
0.04160416667,-0.001085905009
0.041625,-0.001056180801
0.04164583333,-0.001009908854
0.04166666667,-0.0009538919549
0.0416875,-0.0009593317518
0.04170833333,-0.0009365226142
0.04172916667,-0.0009300904931
0.04175,-0.0008989272756
0.04177083333,-0.0008559287526
0.04179166667,-0.0008303130162
0.0418125,-0.0007959646173
0.04183333333,-0.0007953500026
0.04185416667,-0.0007614258793
0.041875,-0.0007420621114
0.04189583333,-0.00066700147
0.04191666667,-0.0006655174075
0.0419375,-0.000615025463
0.04195833333,-0.0006644448731
0.04197916667,-0.0007011286216
0.042,-0.0006726289284
0.04202083333,-0.0006032182137
0.04204166667,-0.0005207895301
0.0420625,-0.000454707566
0.04208333333,-0.0004394733114
0.04210416667,-0.0004393547715
0.042125,-0.0003680429654
0.04214583333,-0.0003306213766
0.04216666667,-0.0002420844976
0.0421875,-0.0001677844411
0.04220833333,-0.00014004283
0.04222916667,-0.000100394871
0.04225,-7.260186976e-05
0.04227083333,-2.568410855e-05
0.04229166667,8.211947716e-06
0.0423125,2.225417848e-05
0.04233333333,4.577432992e-05
0.04235416667,6.349106843e-05
0.042375,8.906675794e-05
0.04239583333,0.0001205762746
0.04241666667,0.0001537186763
0.0424375,0.0001815505966
0.04245833333,0.0002046991867
0.04247916667,0.000227716926
0.0425,0.00023826494
0.04252083333,0.0002702857018
0.04254166667,0.0003007971682
0.0425625,0.0003527367953
0.04258333333,0.000395415409
0.04260416667,0.0004347485083
0.042625,0.0004602161353
0.04264583333,0.0004820260219
0.04266666667,0.0004644154978
0.0426875,0.0004456089518
0.04270833333,0.0004257658729
0.04272916667,0.0004633598146
0.04275,0.0004713830131
0.04277083333,0.0005126348115
0.04279166667,0.0005085318699
0.0428125,0.0004867735843
0.04283333333,0.0004498412309
0.04285416667,0.0003998990869
0.042875,0.0003991205595
0.04289583333,0.0003983226488
0.04291666667,0.0004580056702
0.0429375,0.0004785938363
0.04295833333,0.0004434772127
0.04297916667,0.0004792668042
0.043,0.0004508979036
0.04302083333,0.0004992580507
0.04304166667,0.0005327066756
0.0430625,0.0005236039287
0.04308333333,0.0005518416874
0.04310416667,0.0005735673476
0.043125,0.0006479177391
0.04314583333,0.0006675381446
0.04316666667,0.0006897149724
0.0431875,0.000686136249
0.04320833333,0.0006867805496
0.04322916667,0.000703868689
0.04325,0.0007106206031
0.04327083333,0.0007504979149
0.04329166667,0.0007690761122
0.0433125,0.0007806194481
0.04333333333,0.000738734263
0.04335416667,0.0007030820125
0.043375,0.0006708776928
0.04339583333,0.0006610025303
0.04341666667,0.0006242553936
0.0434375,0.0005861406098
0.04345833333,0.0005405544071
0.04347916667,0.0005115979002
0.0435,0.0005145301693
0.04352083333,0.000535423751
0.04354166667,0.000566476956
0.0435625,0.0005678990274
0.04358333333,0.0005569951027
0.04360416667,0.0005381278461
0.043625,0.0005348282284
0.04364583333,0.0005220713792
0.04366666667,0.0005570211215
0.0436875,0.0005640753661
0.04370833333,0.000571722805
0.04372916667,0.0005525064189
0.04375,0.0005176036502
0.04377083333,0.0004706297477
0.04379166667,0.0004320748558
0.0438125,0.0003995392181
0.04383333333,0.000354731601
0.04385416667,0.0003217576013
0.043875,0.000279899512
0.04389583333,0.0002705010702
0.04391666667,0.0002571102232
0.0439375,0.0003079263552
0.04395833333,0.0003392966464
0.04397916667,0.0002703379141
0.044,0.0002412397735
0.04402083333,0.0002778725466
0.04404166667,0.0002491349587
0.0440625,0.0002642952604
0.04408333333,0.0002860911482
0.04410416667,0.0003346470185
0.044125,0.0003280340461
0.04414583333,0.0003574158472
0.04416666667,0.0003682143579
0.0441875,0.0003680855152
0.04420833333,0.0004458724288
0.04422916667,0.000515422842
0.04425,0.0005686968216
0.04427083333,0.0006320160464
0.04429166667,0.0006696204073
0.0443125,0.0007244572625
0.04433333333,0.0007517637569
0.04435416667,0.0007801173488
0.044375,0.0008031031466
0.04439583333,0.0008517403621
0.04441666667,0.0009113237611
0.0444375,0.0009883983294
0.04445833333,0.001059255213
0.04447916667,0.001112250495
0.0445,0.001150681754
0.04452083333,0.001150026685
0.04454166667,0.001146452967
0.0445625,0.001158689149
0.04458333333,0.001206300803
0.04460416667,0.001308088424
0.044625,0.001418610802
0.04464583333,0.001527713961
0.04466666667,0.001591829467
0.0446875,0.001668061246
0.04470833333,0.001718835323
0.04472916667,0.001763339387
0.04475,0.001796677476
0.04477083333,0.001840101555
0.04479166667,0.001868357416
0.0448125,0.001910736784
0.04483333333,0.001947861165
0.04485416667,0.002001291374
0.044875,0.002073623938
0.04489583333,0.002138420474
0.04491666667,0.002162694465
0.0449375,0.002149286447
0.04495833333,0.002108153654
0.04497916667,0.002106663771
0.045,0.002122613369
0.04502083333,0.002145180246
0.04504166667,0.002157559851
0.0450625,0.002157430397
0.04508333333,0.002200789051
0.04510416667,0.002193866763
0.045125,0.002217690926
0.04514583333,0.002240217291
0.04516666667,0.002243623603
0.0451875,0.002260946669
0.04520833333,0.002242792631
0.04522916667,0.002234568354
0.04525,0.002213885542
0.04527083333,0.002223119838
0.04529166667,0.002226007869
0.0453125,0.00219366583
0.04533333333,0.002134189242
0.04535416667,0.002084160456
0.045375,0.002038956853
0.04539583333,0.002048457507
0.04541666667,0.002027360722
0.0454375,0.001998305088
0.04545833333,0.00198366167
0.04547916667,0.001969366567
0.0455,0.001987867523
0.04552083333,0.002037662547
0.04554166667,0.00207781489
0.0455625,0.002143482212
0.04558333333,0.002179998904
0.04560416667,0.002210653154
0.045625,0.002269149991
0.04564583333,0.00231879577
0.04566666667,0.002374640666
0.0456875,0.00239186571
0.04570833333,0.002383252839
0.04572916667,0.00237177941
0.04575,0.002366363304
0.04577083333,0.00238820957
0.04579166667,0.00242988742
0.0458125,0.002464767778
0.04583333333,0.00249585812
0.04585416667,0.002472340129
0.045875,0.002461744938
0.04589583333,0.002453815425
0.04591666667,0.002456518589
0.0459375,0.002463806653
0.04595833333,0.00243409886
0.04597916667,0.00241746637
0.046,0.002382693579
0.04602083333,0.002388447057
0.04604166667,0.002401757054
0.0460625,0.002440078184
0.04608333333,0.002490488347
0.04610416667,0.002527494915
0.046125,0.002542720176
0.04614583333,0.002585667418
0.04616666667,0.002608511131
0.0461875,0.002606577706
0.04620833333,0.002655769698
0.04622916667,0.002683188999
0.04625,0.002728779567
0.04627083333,0.002773021813
0.04629166667,0.002810944337
0.0463125,0.002846962307
0.04633333333,0.002845571842
0.04635416667,0.002826889046
0.046375,0.002823052928
0.04639583333,0.002809168305
0.04641666667,0.002807566198
0.0464375,0.002796496497
0.04645833333,0.002797914203
0.04647916667,0.002810752252
0.0465,0.002811561571
0.04652083333,0.002826410811
0.04654166667,0.002849061042
0.0465625,0.002882117871
0.04658333333,0.002898234408
0.04660416667,0.002915307181
0.046625,0.002928316128
0.04664583333,0.002926086774
0.04666666667,0.002931456314
0.0466875,0.00295322598
0.04670833333,0.002951775212
0.04672916667,0.002952544484
0.04675,0.002950770548
0.04677083333,0.002963519655
0.04679166667,0.002968585119
0.0468125,0.003009364707
0.04683333333,0.003054849571
0.04685416667,0.003102265298
0.046875,0.003136377782
0.04689583333,0.003168086521
0.04691666667,0.003196951468
0.0469375,0.003238591831
0.04695833333,0.003316503717
0.04697916667,0.003420119639
0.047,0.003508508205
0.04702083333,0.003616059897
0.04704166667,0.003692848841
0.0470625,0.003785629291
0.04708333333,0.003858108306
0.04710416667,0.003943473101
0.047125,0.004066807218
0.04714583333,0.004190258216
0.04716666667,0.004329378717
0.0471875,0.004442032427
0.04720833333,0.004532977007
0.04722916667,0.004600935616
0.04725,0.004683241248
0.04727083333,0.004767803475
0.04729166667,0.004857766908
0.0473125,0.004922055639
0.04733333333,0.004963048734
0.04735416667,0.005000950769
0.047375,0.005006709602
0.04739583333,0.005042138975
0.04741666667,0.005064121448
0.0474375,0.005097009707
0.04745833333,0.005095695145
0.04747916667,0.005063125864
0.0475,0.005042886361
0.04752083333,0.005026817322
0.04754166667,0.005015114322
0.0475625,0.005033402704
0.04758333333,0.005012789741
0.04760416667,0.004988068715
0.047625,0.004947780166
0.04764583333,0.004909709562
0.04766666667,0.004863775335
0.0476875,0.00482635526
0.04770833333,0.004789310507
0.04772916667,0.004770156927
0.04775,0.004767120816
0.04777083333,0.004775114823
0.04779166667,0.004800354596
0.0478125,0.004815614317
0.04783333333,0.00479141064
0.04785416667,0.004751345143
0.047875,0.004709309433
0.04789583333,0.004688560497
0.04791666667,0.004659963306
0.0479375,0.004678805359
0.04795833333,0.004693631083
0.04797916667,0.004664062522
0.048,0.004629454575
0.04802083333,0.004624526948
0.04804166667,0.004649140872
0.0480625,0.004732748494
0.04808333333,0.004762765486
0.04810416667,0.004822394345
0.048125,0.004819901194
0.04814583333,0.004828199279
0.04816666667,0.004887355026
0.0481875,0.004954411648
0.04820833333,0.005040623713
0.04822916667,0.005119195208
0.04825,0.005156638101
0.04827083333,0.005187616684
0.04829166667,0.005233900156
0.0483125,0.005295324139
0.04833333333,0.005388067104
0.04835416667,0.005451446399
0.048375,0.005471508019
0.04839583333,0.005457250401
0.04841666667,0.005407849327
0.0484375,0.005389075261
0.04845833333,0.005413392559
0.04847916667,0.005463706329
0.0485,0.005521482788
0.04852083333,0.005540410988
0.04854166667,0.005555526353
0.0485625,0.005556482822
0.04858333333,0.005601581186
0.04860416667,0.005639818497
0.048625,0.005667793564
0.04864583333,0.005695564672
0.04866666667,0.00571477972
0.0486875,0.005738525186
0.04870833333,0.005746837705
0.04872916667,0.005773630925
0.04875,0.005794042721
0.04877083333,0.005859836936
0.04879166667,0.005889665335
0.0488125,0.005878134631
0.04883333333,0.005855669267
0.04885416667,0.00580486469
0.048875,0.005767441355
0.04889583333,0.005766907707
0.04891666667,0.005744684488
0.0489375,0.005766852293
0.04895833333,0.00575149199
0.04897916667,0.005761087872
0.049,0.005784165114
0.04902083333,0.005786602385
0.04904166667,0.005783354864
0.0490625,0.005764169618
0.04908333333,0.005741429515
0.04910416667,0.00573888747
0.049125,0.005716961809
0.04914583333,0.005707325414
0.04916666667,0.005673621781
0.0491875,0.005669630133
0.04920833333,0.005663569085
0.04922916667,0.005623721518
0.04925,0.005588670261
0.04927083333,0.005526799709
0.04929166667,0.005449522287
0.0493125,0.005409394857
0.04933333333,0.005320650991
0.04935416667,0.005238598213
0.049375,0.005151128396
0.04939583333,0.005077166948
0.04941666667,0.005006819032
0.0494375,0.004981613252
0.04945833333,0.004948834889
0.04947916667,0.004930794705
0.0495,0.004880797584
0.04952083333,0.004817655776
0.04954166667,0.004754008725
0.0495625,0.004723069258
0.04958333333,0.004707167856
0.04960416667,0.004720273428
0.049625,0.004731054418
0.04964583333,0.00474789599
0.04966666667,0.004737915937
0.0496875,0.004763470031
0.04970833333,0.004803532269
0.04972916667,0.00484171696
0.04975,0.004854409024
0.04977083333,0.004855748266
0.04979166667,0.004798495211
0.0498125,0.004753026646
0.04983333333,0.004717497621
0.04985416667,0.004722286481
0.049875,0.004763589706
0.04989583333,0.004779968411
0.04991666667,0.00479257619
0.0499375,0.004793830216
0.04995833333,0.004780028015
0.04997916667,0.00473968219
0.05,0.004727175925
0.05002083333,0.004709153436
0.05004166667,0.00469786115
0.0500625,0.004676119424
0.05008333333,0.004659340717
0.05010416667,0.004593111109
0.050125,0.004572147503
0.05014583333,0.004557789303
0.05016666667,0.004540181253
0.0501875,0.004549420904
0.05020833333,0.004503390752
0.05022916667,0.004471119959
0.05025,0.004444315098
0.05027083333,0.004410699476
0.05029166667,0.004384296015
0.0503125,0.004384183325
0.05033333333,0.004391457886
0.05035416667,0.004408430308
0.050375,0.004413145129
0.05039583333,0.004418372177
0.05041666667,0.004392264411
0.0504375,0.004359774757
0.05045833333,0.004384865984
0.05047916667,0.004389190581
0.0505,0.004405403044
0.05052083333,0.004405506421
0.05054166667,0.004387744237
0.0505625,0.004389051814
0.05058333333,0.004372857511
0.05060416667,0.00436158292
0.050625,0.004345958587
0.05064583333,0.004290685523
0.05066666667,0.004246381577
0.0506875,0.00417255098
0.05070833333,0.00412603002
0.05072916667,0.00406823447
0.05075,0.004020307213
0.05077083333,0.003984863404
0.05079166667,0.003964560106
0.0508125,0.00394950388
0.05083333333,0.003967498895
0.05085416667,0.003959265072
0.050875,0.003945660312
0.05089583333,0.003942222334
0.05091666667,0.003911075648
0.0509375,0.003932031803
0.05095833333,0.003914052621
0.05097916667,0.003923869226
0.051,0.003933455329
0.05102083333,0.003910100088
0.05104166667,0.003920053132
0.0510625,0.003953815904
0.05108333333,0.003999811597
0.05110416667,0.004090544768
0.051125,0.004170474131
0.05114583333,0.004227004945
0.05116666667,0.004224020522
0.0511875,0.004245276097
0.05120833333,0.004205314908
0.05122916667,0.004158639349
0.05125,0.004174313042
0.05127083333,0.004165106453
0.05129166667,0.004230501596
0.0513125,0.004228407517
0.05133333333,0.004191653337
0.05135416667,0.004176524468
0.051375,0.004133285955
0.05139583333,0.004108420108
0.05141666667,0.00407569157
0.0514375,0.004053889308
0.05145833333,0.004074685741
0.05147916667,0.00408566976
0.0515,0.004114741925
0.05152083333,0.004142004997
0.05154166667,0.004172807559
0.0515625,0.004195253365
0.05158333333,0.004141173791
0.05160416667,0.004066211171
0.051625,0.003984279931
0.05164583333,0.003932450898
0.05166666667,0.003925072495
0.0516875,0.003871254623
0.05170833333,0.003845955478
0.05172916667,0.003812056035
0.05175,0.00371091743
0.05177083333,0.003649709281
0.05179166667,0.003570606001
0.0518125,0.003536262084
0.05183333333,0.003489249386
0.05185416667,0.003471616423
0.051875,0.003414004575
0.05189583333,0.003408724442
0.05191666667,0.00340125896
0.0519375,0.00339736673
0.05195833333,0.003427455202
0.05197916667,0.003408230375
0.052,0.003390596015
0.05202083333,0.003320543794
0.05204166667,0.003290150547
0.0520625,0.003261010163
0.05208333333,0.003199323779
0.05210416667,0.003165984293
0.052125,0.003189162584
0.05214583333,0.003199941479
0.05216666667,0.003110832302
0.0521875,0.003090871731
0.05220833333,0.003035803093
0.05222916667,0.002943923697
0.05225,0.003028189065
0.05227083333,0.003007073421
0.05229166667,0.00294652232
0.0523125,0.002845742274
0.05233333333,0.002673851559
0.05235416667,0.002549180295
0.052375,0.00241480465
0.05239583333,0.00235516415
0.05241666667,0.00228937692
0.0524375,0.002257683547
0.05245833333,0.002208448481
0.05247916667,0.002123582643
0.0525,0.002042787382
0.05252083333,0.001946713892
0.05254166667,0.00188140769
0.0525625,0.001825332874
0.05258333333,0.001789154718
0.05260416667,0.001734295976
0.052625,0.001612363383
0.05264583333,0.001534205163
0.05266666667,0.001455166144
0.0526875,0.001426378498
0.05270833333,0.001425336581
0.05272916667,0.001402521506
0.05275,0.001342933974
0.05277083333,0.001287877792
0.05279166667,0.001214909018
0.0528125,0.001127803349
0.05283333333,0.001083427225
0.05285416667,0.001082720468
0.052875,0.001098951092
0.05289583333,0.001071232953
0.05291666667,0.001058552181
0.0529375,0.001030120999
0.05295833333,0.00103143591
0.05297916667,0.001011581277
0.053,0.0009957737057
0.05302083333,0.001193469507
0.05304166667,0.001091986545
0.0530625,0.0009271020535
0.05308333333,0.0008753684233
0.05310416667,0.0007860501064
0.053125,0.0007907697
0.05314583333,0.0006780832773
0.05316666667,0.0006736554205
0.0531875,0.0006880925503
0.05320833333,0.000645060325
0.05322916667,0.0007146671414
0.05325,0.0006812174688
0.05327083333,0.0006665708497
0.05329166667,0.0006973638083
0.0533125,0.0006828405312
0.05333333333,0.0006924050394
0.05335416667,0.0006849746569
0.053375,0.0007221610867
0.05339583333,0.0007721645525
0.05341666667,0.0008261041949
0.0534375,0.0008510693442
0.05345833333,0.000855284452
0.05347916667,0.0009086782811
0.0535,0.0009615924791
0.05352083333,0.0009838689584
0.05354166667,0.001038620947
0.0535625,0.0009951553075
0.05358333333,0.001079990878
0.05360416667,0.001111549675
0.053625,0.001105227391
0.05364583333,0.001117369742
0.05366666667,0.001109640347
0.0536875,0.00112946122
0.05370833333,0.001110058045
0.05372916667,0.001110393787
0.05375,0.001084423857
0.05377083333,0.001048073638
0.05379166667,0.001006919774
0.0538125,0.001025597448
0.05383333333,0.001034262124
0.05385416667,0.001031440566
0.053875,0.001119584776
0.05389583333,0.001138446503
0.05391666667,0.001165748574
0.0539375,0.00117747637
0.05395833333,0.001150193275
0.05397916667,0.001168147544
0.054,0.001146146096
0.05402083333,0.001027965685
0.05404166667,0.00104217534
0.0540625,0.0009342887788
0.05408333333,0.0007835772121
0.05410416667,0.0007268178742
0.054125,0.0006389519549
0.05414583333,0.0006277980865
0.05416666667,0.0005255788565
0.0541875,0.0004091658338
0.05420833333,0.0002776579931
0.05422916667,0.000137403913
0.05425,2.017187944e-05
0.05427083333,-9.297764336e-05
0.05429166667,-0.0002002986585
0.0543125,-0.0003068279475
0.05433333333,-0.0004142076359
0.05435416667,-0.0005262753111
0.054375,-0.0006703824038
0.05439583333,-0.000790440361
0.05441666667,-0.0009083604673
0.0544375,-0.001096784021
0.05445833333,-0.001253059716
0.05447916667,-0.001435055747
0.0545,-0.001651429338
0.05452083333,-0.001795966527
0.05454166667,-0.002030596836
0.0545625,-0.002175445203
0.05458333333,-0.002335795201
0.05460416667,-0.002456828253
0.054625,-0.002576682018
0.05464583333,-0.00267149834
0.05466666667,-0.002761744196
0.0546875,-0.002885575173
0.05470833333,-0.002952700248
0.05472916667,-0.003033057787
0.05475,-0.003095644061
0.05477083333,-0.003097806126
0.05479166667,-0.003123524133
0.0548125,-0.003167609451
0.05483333333,-0.003169646254
0.05485416667,-0.003189833136
0.054875,-0.003192381701
0.05489583333,-0.003171480959
0.05491666667,-0.003173588309
0.0549375,-0.003138497705
0.05495833333,-0.003232935444
0.05497916667,-0.003290379653
0.055,-0.003281907644
0.05502083333,-0.003296456067
0.05504166667,-0.003306164872
0.0550625,-0.003305342514
0.05508333333,-0.003279908327
0.05510416667,-0.003332396504
0.055125,-0.003321255557
0.05514583333,-0.00332022924
0.05516666667,-0.003358604852
0.0551875,-0.003304041224
0.05520833333,-0.00327348779
0.05522916667,-0.003230241826
0.05525,-0.003240349237
0.05527083333,-0.003203837201
0.05529166667,-0.003143330105
0.0553125,-0.003091447521
0.05533333333,-0.002988025546
0.05535416667,-0.002968512243
0.055375,-0.002959705889
0.05539583333,-0.002939738566
0.05541666667,-0.002924520522
0.0554375,-0.002906941809
0.05545833333,-0.00286366092
0.05547916667,-0.002811842132
0.0555,-0.002735459013
0.05552083333,-0.002743785735
0.05554166667,-0.002748281229
0.0555625,-0.002750979736
0.05558333333,-0.002727073617
0.05560416667,-0.002716032322
0.055625,-0.002731360495
0.05564583333,-0.002720319666
0.05566666667,-0.002727058018
0.0556875,-0.002757643582
0.05570833333,-0.00279460568
0.05572916667,-0.002827850869
0.05575,-0.002869620686
0.05577083333,-0.002902864013
0.05579166667,-0.002882339759
0.0558125,-0.002892917488
0.05583333333,-0.002874353668
0.05585416667,-0.002873559482
0.055875,-0.002909276402
0.05589583333,-0.002932586242
0.05591666667,-0.002938961843
0.0559375,-0.002942841966
0.05595833333,-0.002965459833
0.05597916667,-0.002984706778
0.056,-0.003038569819
0.05602083333,-0.003094502259
0.05604166667,-0.003161389846
0.0560625,-0.003208381822
0.05608333333,-0.00324685243
0.05610416667,-0.003349672537
0.056125,-0.003386728931
0.05614583333,-0.003473942168
0.05616666667,-0.00353616965
0.0561875,-0.003565788502
0.05620833333,-0.003686936107
0.05622916667,-0.003678442212
0.05625,-0.003701546229
0.05627083333,-0.003794973483
0.05629166667,-0.003798448946
0.0563125,-0.003978556488
0.05633333333,-0.004052465782
0.05635416667,-0.004084996879
0.056375,-0.004138522781
0.05639583333,-0.004149134271
0.05641666667,-0.004243904259
0.0564375,-0.004266952164
0.05645833333,-0.004320797976
0.05647916667,-0.004364958964
0.0565,-0.00429068692
0.05652083333,-0.004267314449
0.05654166667,-0.004288807046
0.0565625,-0.00433105696
0.05658333333,-0.004385107663
0.05660416667,-0.004425039515
0.056625,-0.004427961074
0.05664583333,-0.004480218515
0.05666666667,-0.004540295806
0.0566875,-0.004564992152
0.05670833333,-0.004612613004
0.05672916667,-0.004578552675
0.05675,-0.004558681976
0.05677083333,-0.00457528187
0.05679166667,-0.004656693432
0.0568125,-0.00468422845
0.05683333333,-0.004717472941
0.05685416667,-0.004729252774
0.056875,-0.004732518457
0.05689583333,-0.00480577955
0.05691666667,-0.00480831787
0.0569375,-0.004867576063
0.05695833333,-0.004976361059
0.05697916667,-0.005071627907
0.057,-0.005219657905
0.05702083333,-0.005358284805
0.05704166667,-0.005466095172
0.0570625,-0.005552378017
0.05708333333,-0.005631738808
0.05710416667,-0.005757634528
0.057125,-0.005800662097
0.05714583333,-0.005847299471
0.05716666667,-0.005954827648
0.0571875,-0.005978757981
0.05720833333,-0.006050748285
0.05722916667,-0.006188366562
0.05725,-0.006269562058
0.05727083333,-0.006399586797
0.05729166667,-0.006441007368
0.0573125,-0.006500221323
0.05733333333,-0.006540012546
0.05735416667,-0.006471366622
0.057375,-0.006500861607
0.05739583333,-0.006572323386
0.05741666667,-0.006644315086
0.0574375,-0.006677479949
0.05745833333,-0.006670507137
0.05747916667,-0.006629287265
0.0575,-0.006652054377
0.05752083333,-0.006703307852
0.05754166667,-0.006690360606
0.0575625,-0.006645059213
0.05758333333,-0.006635252386
0.05760416667,-0.006610912271
0.057625,-0.00662029162
0.05764583333,-0.006665174384
0.05766666667,-0.006679138169
0.0576875,-0.006632104516
0.05770833333,-0.006552191451
0.05772916667,-0.006566521712
0.05775,-0.006529347971
0.05777083333,-0.006481303368
0.05779166667,-0.006431845017
0.0578125,-0.006418498699
0.05783333333,-0.006415235344
0.05785416667,-0.006404248532
0.057875,-0.006367752329
0.05789583333,-0.006341600325
0.05791666667,-0.006361799315
0.0579375,-0.006312929094
0.05795833333,-0.006323117297
0.05797916667,-0.006293356419
0.058,-0.006169463042
0.05802083333,-0.006161095574
0.05804166667,-0.006098906975
0.0580625,-0.006095245015
0.05808333333,-0.006075391546
0.05810416667,-0.006055400707
0.058125,-0.006075955927
0.05814583333,-0.006010910496
0.05816666667,-0.006036767736
0.0581875,-0.00612918986
0.05820833333,-0.006147795822
0.05822916667,-0.00619643135
0.05825,-0.006271182559
0.05827083333,-0.006309696939
0.05829166667,-0.006410797127
0.0583125,-0.006498549134
0.05833333333,-0.00652793888
0.05835416667,-0.006546897814
0.058375,-0.006514768116
0.05839583333,-0.006554020569
0.05841666667,-0.006628455594
0.0584375,-0.006771391258
0.05845833333,-0.006810531951
0.05847916667,-0.006896115839
0.0585,-0.006919161882
0.05852083333,-0.006926365197
0.05854166667,-0.006909988355
0.0585625,-0.006845868193
0.05858333333,-0.006919520907
0.05860416667,-0.007007454988
0.058625,-0.007099755108
0.05864583333,-0.007205623202
0.05866666667,-0.007352475077
0.0586875,-0.00749451248
0.05870833333,-0.007521311287
0.05872916667,-0.007610061206
0.05875,-0.007627814077
0.05877083333,-0.007665411569
0.05879166667,-0.007761117071
0.0588125,-0.00784155447
0.05883333333,-0.007899976335
0.05885416667,-0.007897278294
0.058875,-0.008024759591
0.05889583333,-0.007998374291
0.05891666667,-0.007952164859
0.0589375,-0.007902996615
0.05895833333,-0.007832625881
0.05897916667,-0.007812072989
0.059,-0.007746798918
0.05902083333,-0.007788665593
0.05904166667,-0.007776960731
0.0590625,-0.007749129087
0.05908333333,-0.007814730518
0.05910416667,-0.007781232707
0.059125,-0.007746379357
0.05914583333,-0.007691456471
0.05916666667,-0.007598954253
0.0591875,-0.007557632402
0.05920833333,-0.007556057069
0.05922916667,-0.00754817389
0.05925,-0.00761596486
0.05927083333,-0.007616800722
0.05929166667,-0.007605417632
0.0593125,-0.007609517314
0.05933333333,-0.007618360221
0.05935416667,-0.007644689642
0.059375,-0.007662762888
0.05939583333,-0.007637164555
0.05941666667,-0.007653449662
0.0594375,-0.007643488236
0.05945833333,-0.007667710539
0.05947916667,-0.007614818402
0.0595,-0.00761066284
0.05952083333,-0.007615265436
0.05954166667,-0.007688401267
0.0595625,-0.007720895112
0.05958333333,-0.007793748751
0.05960416667,-0.007891418412
0.059625,-0.008013227955
0.05964583333,-0.008190281689
0.05966666667,-0.00823651813
0.0596875,-0.008263371885
0.05970833333,-0.008222499862
0.05972916667,-0.008265282959
0.05975,-0.008327903226
0.05977083333,-0.008308788761
0.05979166667,-0.008363738656
0.0598125,-0.008261531591
0.05983333333,-0.008142124861
0.05985416667,-0.008160892874
0.059875,-0.008125036955
0.05989583333,-0.008046003059
0.05991666667,-0.007999203168
0.0599375,-0.007942278869
0.05995833333,-0.007857944816
0.05997916667,-0.007801556028
0.06,-0.007733890321
0.06002083333,-0.007632663473
0.06004166667,-0.007526344154
0.0600625,-0.00735858595
0.06008333333,-0.007284149062
0.06010416667,-0.00706178369
0.060125,-0.006979722995
0.06014583333,-0.00689747557
0.06016666667,-0.006801529322
0.0601875,-0.006749070715
0.06020833333,-0.006660228595
0.06022916667,-0.006539915223
0.06025,-0.006456511561
0.06027083333,-0.006345857866
0.06029166667,-0.006300970912
0.0603125,-0.00624738913
0.06033333333,-0.006138803437
0.06035416667,-0.005997726694
0.060375,-0.005876064766
0.06039583333,-0.005853929557
0.06041666667,-0.005769106094
0.0604375,-0.005759631284
0.06045833333,-0.005700990558
0.06047916667,-0.005578791257
0.0605,-0.005483105779
0.06052083333,-0.005407653283
0.06054166667,-0.005375200417
0.0605625,-0.005268989597
0.06058333333,-0.005094137043
0.06060416667,-0.004979595542
0.060625,-0.004701309372
0.06064583333,-0.004628050607
0.06066666667,-0.004524192773
0.0606875,-0.004316397943
0.06070833333,-0.004197661299
0.06072916667,-0.003935351502
0.06075,-0.003782959888
0.06077083333,-0.003711357713
0.06079166667,-0.003662704723
0.0608125,-0.003575596027
0.06083333333,-0.003523956053
0.06085416667,-0.003429175587
0.060875,-0.003346186597
0.06089583333,-0.003196349367
0.06091666667,-0.00306065171
0.0609375,-0.002939522266
0.06095833333,-0.002869429067
0.06097916667,-0.0027313889
0.061,-0.002710411558
0.06102083333,-0.002736064605
0.06104166667,-0.002734331414
0.0610625,-0.002776800888
0.06108333333,-0.002742141718
0.06110416667,-0.002810879378
0.061125,-0.002765841782
0.06114583333,-0.002713847673
0.06116666667,-0.002790505299
0.0611875,-0.002670395654
0.06120833333,-0.00260258629
0.06122916667,-0.002534374828
0.06125,-0.002451960463
0.06127083333,-0.002406338695
0.06129166667,-0.002314643934
0.0613125,-0.00222132029
0.06133333333,-0.002085893881
0.06135416667,-0.002025763504
0.061375,-0.001876590075
0.06139583333,-0.001673647203
0.06141666667,-0.001603732817
0.0614375,-0.001469122246
0.06145833333,-0.00135713839
0.06147916667,-0.001205837587
0.0615,-0.001112183789
0.06152083333,-0.001013132744
0.06154166667,-0.0008567653713
0.0615625,-0.0007567956345
0.06158333333,-0.0006452428061
0.06160416667,-0.0005083723227
0.061625,-0.0004217821697
0.06164583333,-0.0003207315167
0.06166666667,-0.0002332589938
0.0616875,-6.536757428e-05
0.06170833333,3.203437518e-05
0.06172916667,0.0001458845654
0.06175,0.0003448630741
0.06177083333,0.0004099801881
0.06179166667,0.0005430359161
0.0618125,0.0006245312397
0.06183333333,0.0007109431899
0.06185416667,0.0007854474243
0.061875,0.000899129489
0.06189583333,0.001001608092
0.06191666667,0.0010716822
0.0619375,0.001180300605
0.06195833333,0.001314615831
0.06197916667,0.001490900177
0.062,0.001664628275
0.06202083333,0.001750740805
0.06204166667,0.001879445394
0.0620625,0.001993168844
0.06208333333,0.002130247653
0.06210416667,0.002268125536
0.062125,0.002346542198
0.06214583333,0.00252561993
0.06216666667,0.002710161265
0.0621875,0.002678532619
0.06220833333,0.002658215351
0.06222916667,0.00293041137
0.06225,0.003235070035
0.06227083333,0.003367037047
0.06229166667,0.003374284133
0.0623125,0.00368174864
0.06233333333,0.00378137338
0.06235416667,0.00391722424
0.062375,0.004165691789
0.06239583333,0.004178180359
0.06241666667,0.004353482742
0.0624375,0.004408628214
0.06245833333,0.004525755532
0.06247916667,0.004583060741
0.0625,0.004647691734
0.06252083333,0.004794605076
0.06254166667,0.004768752959
0.0625625,0.004861640278
0.06258333333,0.004954647738
0.06260416667,0.004964838736
0.062625,0.005031152163
0.06264583333,0.005025385413
0.06266666667,0.005121497437
0.0626875,0.005153410137
0.06270833333,0.00516443653
0.06272916667,0.005130300298
0.06275,0.005163410679
0.06277083333,0.005286290776
0.06279166667,0.005286887754
0.0628125,0.005397359375
0.06283333333,0.005451826379
0.06285416667,0.005516263656
0.062875,0.005644340534
0.06289583333,0.005724260118
0.06291666667,0.005812580232
0.0629375,0.005941879004
0.06295833333,0.005974177271
0.06297916667,0.006045396905
0.063,0.006119995378
0.06302083333,0.006170922425
0.06304166667,0.0062555857
0.0630625,0.006350012962
0.06308333333,0.006329550873
0.06310416667,0.006354915444
0.063125,0.00652571721
0.06314583333,0.006535512861
0.06316666667,0.006737964693
0.0631875,0.006974509917
0.06320833333,0.006752178073
0.06322916667,0.006760437507
0.06325,0.006987337023
0.06327083333,0.006940769032
0.06329166667,0.007224781904
0.0633125,0.007183082402
0.06333333333,0.007172181271
0.06335416667,0.007251877338
0.063375,0.007141378243
0.06339583333,0.007253027055
0.06341666667,0.00716764573
0.0634375,0.007181135472
0.06345833333,0.007190053351
0.06347916667,0.007194579579
0.0635,0.007245372515
0.06352083333,0.0072571286
0.06354166667,0.00729590049
0.0635625,0.007346135098
0.06358333333,0.007334456313
0.06360416667,0.00738659827
0.063625,0.007380519062
0.06364583333,0.007452205289
0.06366666667,0.007442551199
0.0636875,0.007401151117
0.06370833333,0.007413078565
0.06372916667,0.007406256162
0.06375,0.007444933988
0.06377083333,0.007454655599
0.06379166667,0.007519765291
0.0638125,0.007586280815
0.06383333333,0.007617402356
0.06385416667,0.007670294028
0.063875,0.007646665443
0.06389583333,0.007654702291
0.06391666667,0.007668989245
0.0639375,0.007586260792
0.06395833333,0.007616081741
0.06397916667,0.007650197484
0.064,0.007655914873
0.06402083333,0.007668701001
0.06404166667,0.007713436149
0.0640625,0.007804063614
0.06408333333,0.007918319665
0.06410416667,0.007968194783
0.064125,0.008031508885
0.06414583333,0.008237823844
0.06416666667,0.008442720398
0.0641875,0.008655718528
0.06420833333,0.008820255287
0.06422916667,0.008977060206
0.06425,0.009247386828
0.06427083333,0.009368996136
0.06429166667,0.009527281858
0.0643125,0.009711704217
0.06433333333,0.009855590761
0.06435416667,0.01007389836
0.064375,0.01012844685
0.06439583333,0.01031724829
0.06441666667,0.01049137209
0.0644375,0.01061891019
0.06445833333,0.01077508088
0.06447916667,0.01084415894
0.0645,0.01098621171
0.06452083333,0.01112488657
0.06454166667,0.01122096833
0.0645625,0.01137768198
0.06458333333,0.01150443871
0.06460416667,0.01166386157
0.064625,0.01180578675
0.06464583333,0.01191680506
0.06466666667,0.01206815057
0.0646875,0.0120950602
0.06470833333,0.01221835054
0.06472916667,0.01239085291
0.06475,0.01256270055
0.06477083333,0.01269341167
0.06479166667,0.01278410293
0.0648125,0.01287478395
0.06483333333,0.01293621585
0.06485416667,0.01309458911
0.064875,0.01314401999
0.06489583333,0.01319992449
0.06491666667,0.01323352382
0.0649375,0.01328459661
0.06495833333,0.01337462664
0.06497916667,0.01338725071
0.065,0.01348866057
0.06502083333,0.01356211584
0.06504166667,0.01358987112
0.0650625,0.01364525035
0.06508333333,0.01369594969
0.06510416667,0.01374360733
0.065125,0.01380203571
0.06514583333,0.01387341041
0.06516666667,0.01385816187
0.0651875,0.01389569882
0.06520833333,0.01396072004
0.06522916667,0.01396476571
0.06525,0.01398595423
0.06527083333,0.01398884784
0.06529166667,0.01401583944
0.0653125,0.01412876509
0.06533333333,0.01418856159
0.06535416667,0.01422232017
0.065375,0.01426974963
0.06539583333,0.0142235104
0.06541666667,0.01427535061
0.0654375,0.01435932424
0.06545833333,0.01438212581
0.06547916667,0.01443306357
0.0655,0.01442999765
0.06552083333,0.01443250477
0.06554166667,0.01438684762
0.0655625,0.01443291642
0.06558333333,0.01444552746
0.06560416667,0.01446239185
0.065625,0.01446910016
0.06564583333,0.01449160464
0.06566666667,0.01451694034
0.0656875,0.01457678806
0.06570833333,0.01463697758
0.06572916667,0.01465668157
0.06575,0.01465349365
0.06577083333,0.01468071435
0.06579166667,0.01473755203
0.0658125,0.01476865169
0.06583333333,0.01480790041
0.06585416667,0.01485344674
0.065875,0.0148588093
0.06589583333,0.01488155499
0.06591666667,0.01494491939
0.0659375,0.01501891762
0.06595833333,0.01501509082
0.06597916667,0.01501217484
0.066,0.01503675897
0.06602083333,0.01507820189
0.06604166667,0.01516024396
0.0660625,0.01527385041
0.06608333333,0.01539052557
0.06610416667,0.01550095249
0.066125,0.01560850814
0.06614583333,0.01570440084
0.06616666667,0.01581769623
0.0661875,0.015938906
0.06620833333,0.0160663072
0.06622916667,0.01613320597
0.06625,0.01620202512
0.06627083333,0.01621776633
0.06629166667,0.01621506736
0.0663125,0.01628287509
0.06633333333,0.01632368565
0.06635416667,0.01633411646
0.066375,0.01628783531
0.06639583333,0.01627419889
0.06641666667,0.0162125919
0.0664375,0.01618634909
0.06645833333,0.01624949463
0.06647916667,0.01620348915
0.0665,0.01624608226
0.06652083333,0.016291501
0.06654166667,0.01628435776
0.0665625,0.01629250683
0.06658333333,0.01620472223
0.06660416667,0.01615244523
0.066625,0.01609596983
0.06664583333,0.01601321436
0.06666666667,0.01595937647
0.0666875,0.0158600118
0.06670833333,0.01582831517
0.06672916667,0.0158271417
0.06675,0.01582107507
0.06677083333,0.01583943143
0.06679166667,0.01583708264
0.0668125,0.01588314585
0.06683333333,0.0159520898
0.06685416667,0.0159860719
0.066875,0.01606535912
0.06689583333,0.01615569182
0.06691666667,0.01624830626
0.0669375,0.01632291265
0.06695833333,0.01651606895
0.06697916667,0.01662938297
0.067,0.01667653397
0.06702083333,0.01678485982
0.06704166667,0.01686953008
0.0670625,0.01702621207
0.06708333333,0.01712442376
0.06710416667,0.01722714305
0.067125,0.01731077768
0.06714583333,0.01737902872
0.06716666667,0.01746787317
0.0671875,0.01752542891
0.06720833333,0.01759067178
0.06722916667,0.01768821292
0.06725,0.01774290949
0.06727083333,0.01782241277
0.06729166667,0.01794217713
0.0673125,0.01797319949
0.06733333333,0.01798004657
0.06735416667,0.01797530241
0.067375,0.01797387563
0.06739583333,0.01797380112
0.06741666667,0.0179429166
0.0674375,0.01794353314
0.06745833333,0.01794243604
0.06747916667,0.01797642373
0.0675,0.01801371947
0.06752083333,0.01796575263
0.06754166667,0.01791343279
0.0675625,0.0178841278
0.06758333333,0.01787385158
0.06760416667,0.01784426533
0.067625,0.01786243916
0.06764583333,0.01785819419
0.06766666667,0.017807642
0.0676875,0.01784596592
0.06770833333,0.01783988439
0.06772916667,0.0178620033
0.06775,0.01787091792
0.06777083333,0.01780661568
0.06779166667,0.01776858978
0.0678125,0.01771540567
0.06783333333,0.01766328141
0.06785416667,0.01763815433
0.067875,0.01754130237
0.06789583333,0.01750047132
0.06791666667,0.01750865206
0.0679375,0.01744367741
0.06795833333,0.01738126576
0.06797916667,0.01732104644
0.068,0.01724095456
0.06802083333,0.01726219058
0.06804166667,0.01719792373
0.0680625,0.01718000509
0.06808333333,0.01721582003
0.06810416667,0.0172675401
0.068125,0.01728961803
0.06814583333,0.01724986546
0.06816666667,0.0173074156
0.0681875,0.01729259454
0.06820833333,0.01732020266
0.06822916667,0.01735209115
0.06825,0.01724632084
0.06827083333,0.01722614095
0.06829166667,0.01722915657
0.0683125,0.01722621918
0.06833333333,0.01727902144
0.06835416667,0.01732449792
0.068375,0.01730457321
0.06839583333,0.0172353182
0.06841666667,0.01721264608
0.0684375,0.01722939685
0.06845833333,0.01721811481
0.06847916667,0.0171790868
0.0685,0.01713673212
0.06852083333,0.01707896031
0.06854166667,0.01703577116
0.0685625,0.01706892624
0.06858333333,0.0170801878
0.06860416667,0.01712491177
0.068625,0.01708070561
0.06864583333,0.01707004011
0.06866666667,0.01707332954
0.0686875,0.01701867208
0.06870833333,0.01698750071
0.06872916667,0.01690956578
0.06875,0.01687946916
0.06877083333,0.01690067351
0.06879166667,0.01687170193
0.0688125,0.01685225777
0.06883333333,0.01684564166
0.06885416667,0.0168123059
0.068875,0.01677742228
0.06889583333,0.01677025482
0.06891666667,0.01675772108
0.0689375,0.01671136729
0.06895833333,0.01668639667
0.06897916667,0.01664547995
0.069,0.01660804451
0.06902083333,0.01655010507
0.06904166667,0.01654486731
0.0690625,0.01647390611
0.06908333333,0.01635580137
0.06910416667,0.01630186662
0.069125,0.0161824394
0.06914583333,0.01613860764
0.06916666667,0.01615159772
0.0691875,0.01608876698
0.06920833333,0.01605263539
0.06922916667,0.01592776552
0.06925,0.01585162245
0.06927083333,0.01583012566
0.06929166667,0.0157404691
0.0693125,0.01568071358
0.06933333333,0.0156261567
0.06935416667,0.01553785801
0.069375,0.01548016258
0.06939583333,0.01544231642
0.06941666667,0.01535867993
0.0694375,0.0152577851
0.06945833333,0.01519006491
0.06947916667,0.01510443352
0.0695,0.01497129817
0.06952083333,0.01487400942
0.06954166667,0.01477735024
0.0695625,0.01465916354
0.06958333333,0.01464881375
0.06960416667,0.01456867717
0.069625,0.01448742393
0.06964583333,0.01439759135
0.06966666667,0.01430252194
0.0696875,0.0142105557
0.06970833333,0.01411334425
0.06972916667,0.01404462196
0.06975,0.01396525279
0.06977083333,0.01389891375
0.06979166667,0.01375723258
0.0698125,0.01362877153
0.06983333333,0.01355373673
0.06985416667,0.01346461847
0.069875,0.01338202693
0.06989583333,0.01325751375
0.06991666667,0.01317917649
0.0699375,0.01313722786
0.06995833333,0.01303162426
0.06997916667,0.01291136723
0.07,0.012783207
0.07002083333,0.01268048771
0.07004166667,0.01256557275
0.0700625,0.01245352346
0.07008333333,0.01234620344
0.07010416667,0.01222383603
0.070125,0.01209294517
0.07014583333,0.01201142557
0.07016666667,0.01197995804
0.0701875,0.01186451875
0.07020833333,0.01177858748
0.07022916667,0.01172076259
0.07025,0.01173380204
0.07027083333,0.01170679368
0.07029166667,0.0116023086
0.0703125,0.01153505314
0.07033333333,0.01142632216
0.07035416667,0.01138291974
0.070375,0.01135817729
0.07039583333,0.01124131121
0.07041666667,0.01119209547
0.0704375,0.01117376611
0.07045833333,0.01117081568
0.07047916667,0.0111516891
0.0705,0.011106316
0.07052083333,0.01103568729
0.07054166667,0.01096130162
0.0705625,0.01089332905
0.07058333333,0.01077307202
0.07060416667,0.01070281211
0.070625,0.01063315198
0.07064583333,0.01053245645
0.07066666667,0.01041847933
0.0706875,0.0102898851
0.07070833333,0.01015569363
0.07072916667,0.01004983298
0.07075,0.009908296168
0.07077083333,0.009767043404
0.07079166667,0.009673868306
0.0708125,0.009626147337
0.07083333333,0.009535515681
0.07085416667,0.009421603754
0.070875,0.009319032542
0.07089583333,0.00920751784
0.07091666667,0.009092067368
0.0709375,0.008964465931
0.07095833333,0.008850027807
0.07097916667,0.008775693364
0.071,0.008690377697
0.07102083333,0.008635747246
0.07104166667,0.008570507169
0.0710625,0.008457760327
0.07108333333,0.008374433964
0.07110416667,0.008279166184
0.071125,0.008215757087
0.07114583333,0.008137363009
0.07116666667,0.008085886948
0.0711875,0.0080381101
0.07120833333,0.007998893969
0.07122916667,0.007958757691
0.07125,0.007863557898
0.07127083333,0.007766010705
0.07129166667,0.007678149268
0.0713125,0.007585099898
0.07133333333,0.007552072871
0.07135416667,0.007510101888
0.071375,0.007428796031
0.07139583333,0.007319849916
0.07141666667,0.00720708631
0.0714375,0.007176180836
0.07145833333,0.007077697199
0.07147916667,0.006992184557
0.0715,0.00700270338
0.07152083333,0.00684954226
0.07154166667,0.006720005069
0.0715625,0.006605459377
0.07158333333,0.006535201333
0.07160416667,0.006560234353
0.071625,0.006458707154
0.07164583333,0.006381828338
0.07166666667,0.006299447734
0.0716875,0.006166392006
0.07170833333,0.00615076907
0.07172916667,0.006105713546
0.07175,0.006033940241
0.07177083333,0.006007038057
0.07179166667,0.005941620562
0.0718125,0.005840663332
0.07183333333,0.005783333909
0.07185416667,0.005685927812
0.071875,0.005586215761
0.07189583333,0.005527162924
0.07191666667,0.005405320786
0.0719375,0.005307466723
0.07195833333,0.005242389161
0.07197916667,0.005120063201
0.072,0.00498623075
0.07202083333,0.004834738094
0.07204166667,0.004716540221
0.0720625,0.004606229719
0.07208333333,0.004498558119
0.07210416667,0.004432965536
0.072125,0.004288505297
0.07214583333,0.004155569244
0.07216666667,0.004014381673
0.0721875,0.003835023381
0.07220833333,0.003694641404
0.07222916667,0.003568119602
0.07225,0.003417430213
0.07227083333,0.003336631227
0.07229166667,0.003210620256
0.0723125,0.003098314395
0.07233333333,0.002982231788
0.07235416667,0.002776331501
0.072375,0.00275672134
0.07239583333,0.002644600812
0.07241666667,0.0025892423
0.0724375,0.00262348447
0.07245833333,0.00250991527
0.07247916667,0.002520480426
0.0725,0.002407503547
0.07252083333,0.002331331139
0.07254166667,0.002251510974
0.0725625,0.002103955252
0.07258333333,0.002036215505
0.07260416667,0.001923408592
0.072625,0.001877539791
0.07264583333,0.001840441953
0.07266666667,0.001754433615
0.0726875,0.001661880175
0.07270833333,0.001555943396
0.07272916667,0.001446109731
0.07275,0.001357558882
0.07277083333,0.001271258807
0.07279166667,0.001173639204
0.0728125,0.001102939248
0.07283333333,0.001041383017
0.07285416667,0.0009890026413
0.072875,0.0008871379541
0.07289583333,0.0008087689639
0.07291666667,0.0007677485119
0.0729375,0.0007101888186
0.07295833333,0.0006642151275
0.07297916667,0.0006505672354
0.073,0.000629515911
0.07302083333,0.0005690194084
0.07304166667,0.0005062857526
0.0730625,0.0004804951604
0.07308333333,0.0004578575608
0.07310416667,0.0003989202669
0.073125,0.000346083456
0.07314583333,0.0002728905238
0.07316666667,0.0002288836258
0.0731875,0.0001834009163
0.07320833333,0.0001740995503
0.07322916667,0.0001952760358
0.07325,6.976541044e-05
0.07327083333,-7.208023453e-05
0.07329166667,-7.326518971e-05
0.0733125,-7.987501158e-05
0.07333333333,-0.0001695416286
0.07335416667,-0.0002610640659
0.073375,-0.0003229048743
0.07339583333,-0.0003064222401
0.07341666667,-0.0003633219749
0.0734375,-0.0004400367616
0.07345833333,-0.0004502526717
0.07347916667,-0.0005521399435
0.0735,-0.0005939506809
0.07352083333,-0.0006004386814
0.07354166667,-0.0006672035088
0.0735625,-0.0006878876011
0.07358333333,-0.0007827162626
0.07360416667,-0.0008819499635
0.073625,-0.0009662065422
0.07364583333,-0.001062222873
0.07366666667,-0.001121611102
0.0736875,-0.001187418588
0.07370833333,-0.001268695225
0.07372916667,-0.001380156842
0.07375,-0.001490181894
0.07377083333,-0.001553517533
0.07379166667,-0.001596699352
0.0738125,-0.001652481966
0.07383333333,-0.001694215927
0.07385416667,-0.001772256568
0.073875,-0.001829683315
0.07389583333,-0.00194110442
0.07391666667,-0.002054654993
0.0739375,-0.002162438352
0.07395833333,-0.002312411787
0.07397916667,-0.002434520517
0.074,-0.002558693523
0.07402083333,-0.002702180529
0.07404166667,-0.002861347282
0.0740625,-0.003030447755
0.07408333333,-0.003194072051
0.07410416667,-0.003366858698
0.074125,-0.003458769526
0.07414583333,-0.003555795643
0.07416666667,-0.003657280467
0.0741875,-0.003739965614
0.07420833333,-0.003856905969
0.07422916667,-0.004001313355
0.07425,-0.004157684278
0.07427083333,-0.004296065774
0.07429166667,-0.004424640909
0.0743125,-0.004558851011
0.07433333333,-0.004702422768
0.07435416667,-0.004824378528
0.074375,-0.004952151794
0.07439583333,-0.00506813731
0.07441666667,-0.005213587545
0.0744375,-0.005370762665
0.07445833333,-0.005497669801
0.07447916667,-0.005627510138
0.0745,-0.005763116758
0.07452083333,-0.005869450979
0.07454166667,-0.006001317874
0.0745625,-0.006122977473
0.07458333333,-0.006230468862
0.07460416667,-0.006398775615
0.074625,-0.006509078667
0.07464583333,-0.006632705685
0.07466666667,-0.00675374642
0.0746875,-0.006851220038
0.07470833333,-0.006988798734
0.07472916667,-0.007114571054
0.07475,-0.007241432555
0.07477083333,-0.007362219505
0.07479166667,-0.007461046334
0.0748125,-0.007579904981
0.07483333333,-0.007695652544
0.07485416667,-0.00779560674
0.074875,-0.007895936258
0.07489583333,-0.00800866168
0.07491666667,-0.008114566095
0.0749375,-0.008223433048
0.07495833333,-0.008343240246
0.07497916667,-0.008414769545
0.075,-0.008478309959
0.07502083333,-0.008556111716
0.07504166667,-0.00860661827
0.0750625,-0.008672349155
0.07508333333,-0.008720576763
0.07510416667,-0.008741893806
0.075125,-0.008781426586
0.07514583333,-0.008837005123
0.07516666667,-0.00890249107
0.0751875,-0.008933183737
0.07520833333,-0.008939258754
0.07522916667,-0.008936323225
0.07525,-0.008930706419
0.07527083333,-0.008940161206
0.07529166667,-0.008968525566
0.0753125,-0.009001358412
0.07533333333,-0.00901110284
0.07535416667,-0.009021858685
0.075375,-0.00900694821
0.07539583333,-0.009022168815
0.07541666667,-0.00903591048
0.0754375,-0.009010050446
0.07545833333,-0.00901445467
0.07547916667,-0.009006726556
0.0755,-0.00899334345
0.07552083333,-0.00895990897
0.07554166667,-0.008931580931
0.0755625,-0.008935471065
0.07558333333,-0.00891853869
0.07560416667,-0.008882984519
0.075625,-0.008854785003
0.07564583333,-0.008844279684
0.07566666667,-0.008852119558
0.0756875,-0.008886747062
0.07570833333,-0.00888570305
0.07572916667,-0.008883822709
0.07575,-0.00890651159
0.07577083333,-0.008879293688
0.07579166667,-0.008883481845
0.0758125,-0.008895830251
0.07583333333,-0.008917385712
0.07585416667,-0.008965900168
0.075875,-0.009016755968
0.07589583333,-0.009101656266
0.07591666667,-0.009160190821
0.0759375,-0.00921415817
0.07595833333,-0.009294602089
0.07597916667,-0.009366587736
0.076,-0.009466457181
0.07602083333,-0.009543662891
0.07604166667,-0.009575489908
0.0760625,-0.009617644362
0.07608333333,-0.009644583799
0.07610416667,-0.009692931548
0.076125,-0.00975158345
0.07614583333,-0.009808545001
0.07616666667,-0.009887846187
0.0761875,-0.009966070764
0.07620833333,-0.01003197953
0.07622916667,-0.01010961924
0.07625,-0.0102081541
0.07627083333,-0.01031567622
0.07629166667,-0.01042304188
0.0763125,-0.01055289991
0.07633333333,-0.01070162468
0.07635416667,-0.01084067021
0.076375,-0.01092837565
0.07639583333,-0.01101701055
0.07641666667,-0.01112314127
0.0764375,-0.01120127644
0.07645833333,-0.01131451037
0.07647916667,-0.01139971614
0.0765,-0.01143581979
0.07652083333,-0.01150684152
0.07654166667,-0.0116047794
0.0765625,-0.01164412126
0.07658333333,-0.01164393686
0.07660416667,-0.01165360771
0.076625,-0.01166691817
0.07664583333,-0.01165148988
0.07666666667,-0.01164721418
0.0766875,-0.01168375928
0.07670833333,-0.01172014233
0.07672916667,-0.01174058393
0.07675,-0.01176735107
0.07677083333,-0.0117914835
0.07679166667,-0.01180906501
0.0768125,-0.01183357369
0.07683333333,-0.01187298447
0.07685416667,-0.01193362381
0.076875,-0.01197192073
0.07689583333,-0.01201913133
0.07691666667,-0.01207970548
0.0769375,-0.01213381346
0.07695833333,-0.01219666749
0.07697916667,-0.01226742845
0.077,-0.01234590914
0.07702083333,-0.01243899949
0.07704166667,-0.01255435031
0.0770625,-0.0126970252
0.07708333333,-0.01283015776
0.07710416667,-0.01293220092
0.077125,-0.01304272562
0.07714583333,-0.0131566627
0.07716666667,-0.01325210091
0.0771875,-0.01333837677
0.07720833333,-0.01341138501
0.07722916667,-0.01348161511
0.07725,-0.01357642841
0.07727083333,-0.01364845317
0.07729166667,-0.01370535791
0.0773125,-0.01372626517
0.07733333333,-0.01373021025
0.07735416667,-0.01375604421
0.077375,-0.01372974738
0.07739583333,-0.01372594666
0.07741666667,-0.01372040622
0.0774375,-0.01367632858
0.07745833333,-0.01366393827
0.07747916667,-0.01357892249
0.0775,-0.01347281411
0.07752083333,-0.01338530704
0.07754166667,-0.01326887775
0.0775625,-0.0131919682
0.07758333333,-0.01310311258
0.07760416667,-0.01303345617
0.077625,-0.01292828936
0.07764583333,-0.01278909668
0.07766666667,-0.01271909662
0.0776875,-0.01265545934
0.07770833333,-0.01257883012
0.07772916667,-0.01249486208
0.07775,-0.01241183095
0.07777083333,-0.01235599443
0.07779166667,-0.01230846066
0.0778125,-0.01228569727
0.07783333333,-0.01225957274
0.07785416667,-0.0122356927
0.077875,-0.01224399358
0.07789583333,-0.01221632306
0.07791666667,-0.01216333453
0.0779375,-0.01211696398
0.07795833333,-0.01207230333
0.07797916667,-0.01205196232
0.078,-0.01206398476
0.07802083333,-0.01206242759
0.07804166667,-0.01204414479
0.0780625,-0.01201670896
0.07808333333,-0.01200964861
0.07810416667,-0.01200100593
0.078125,-0.01198574714
0.07814583333,-0.01201796718
0.07816666667,-0.01205291692
0.0781875,-0.01209023967
0.07820833333,-0.01211556979
0.07822916667,-0.01209914684
0.07825,-0.01210031658
0.07827083333,-0.01212596521
0.07829166667,-0.01214822568
0.0783125,-0.01216597669
0.07833333333,-0.01216887776
0.07835416667,-0.01219386235
0.078375,-0.01217735
0.07839583333,-0.0121735828
0.07841666667,-0.012168644
0.0784375,-0.01216954552
0.07845833333,-0.01222595479
0.07847916667,-0.0122252265
0.0785,-0.01222504675
0.07852083333,-0.01225967333
0.07854166667,-0.01224502362
0.0785625,-0.01224137004
0.07858333333,-0.01226696372
0.07860416667,-0.01225687005
0.078625,-0.01226101723
0.07864583333,-0.01225194987
0.07866666667,-0.01224314608
0.0786875,-0.01225378364
0.07870833333,-0.01225572824
0.07872916667,-0.01227124501
0.07875,-0.01225749496
0.07877083333,-0.01227043197
0.07879166667,-0.01226146333
0.0788125,-0.01224188879
0.07883333333,-0.01225877926
0.07885416667,-0.01225801744
0.078875,-0.01227577031
0.07889583333,-0.01228085812
0.07891666667,-0.01227760222
0.0789375,-0.01228557434
0.07895833333,-0.01226146892
0.07897916667,-0.01223797444
0.079,-0.01220534556
0.07902083333,-0.01219463348
0.07904166667,-0.01219221763
0.0790625,-0.0121672973
0.07908333333,-0.01215521432
0.07910416667,-0.01214703172
0.079125,-0.01214252505
0.07914583333,-0.01216018107
0.07916666667,-0.01217518374
0.0791875,-0.01214937493
0.07920833333,-0.01212330442
0.07922916667,-0.0121049704
0.07925,-0.01207574643
0.07927083333,-0.0120494226
0.07929166667,-0.01204546634
0.0793125,-0.01202570274
0.07933333333,-0.01201182231
0.07935416667,-0.01197674125
0.079375,-0.01192845684
0.07939583333,-0.01184879337
0.07941666667,-0.01174205169
0.0794375,-0.01167960279
0.07945833333,-0.01161729638
0.07947916667,-0.01156397443
0.0795,-0.01154887304
0.07952083333,-0.01151178218
0.07954166667,-0.0114905769
0.0795625,-0.01148322038
0.07958333333,-0.01144133136
0.07960416667,-0.01139814779
0.079625,-0.01136231888
0.07964583333,-0.0113533847
0.07966666667,-0.0113497898
0.0796875,-0.01132882014
0.07970833333,-0.01131781284
0.07972916667,-0.01129123941
0.07975,-0.01125748921
0.07977083333,-0.01123067737
0.07979166667,-0.01118444465
0.0798125,-0.01114331
0.07983333333,-0.01111291349
0.07985416667,-0.01104801334
0.079875,-0.01097813342
0.07989583333,-0.01090839133
0.07991666667,-0.01084410492
0.0799375,-0.01077762805
0.07995833333,-0.01069445908
0.07997916667,-0.01060075406
0.08,-0.0104857618
0.08002083333,-0.01036906522
0.08004166667,-0.01025313698
0.0800625,-0.01012643334
0.08008333333,-0.0100298021
0.08010416667,-0.009926510043
0.080125,-0.009808267467
0.08014583333,-0.009690242819
0.08016666667,-0.009581207298
0.0801875,-0.009483649395
0.08020833333,-0.009385033511
0.08022916667,-0.009298248217
0.08025,-0.00919935666
0.08027083333,-0.009136308916
0.08029166667,-0.009080435149
0.0803125,-0.008996774442
0.08033333333,-0.008935668506
0.08035416667,-0.008888682351
0.080375,-0.00883069355
0.08039583333,-0.008791413158
0.08041666667,-0.008708170615
0.0804375,-0.008625802584
0.08045833333,-0.008554680273
0.08047916667,-0.008416177705
0.0805,-0.008291437291
0.08052083333,-0.00817805063
0.08054166667,-0.008039552718
0.0805625,-0.007897668518
0.08058333333,-0.00774749089
0.08060416667,-0.007595623378
0.080625,-0.007443720475
0.08064583333,-0.007285433821
0.08066666667,-0.007145195268
0.0806875,-0.007031789981
0.08070833333,-0.006908575073
0.08072916667,-0.006772525609
0.08075,-0.006647924427
0.08077083333,-0.006521029398
0.08079166667,-0.006400543731
0.0808125,-0.006296749227
0.08083333333,-0.006183537655
0.08085416667,-0.006076940801
0.080875,-0.00596812414
0.08089583333,-0.005879670382
0.08091666667,-0.005774778314
0.0809375,-0.005685140844
0.08095833333,-0.005613365676
0.08097916667,-0.005547168199
0.081,-0.005503498483
0.08102083333,-0.005459832493
0.08104166667,-0.005406432319
0.0810625,-0.00535289105
0.08108333333,-0.005297895987
0.08110416667,-0.0052683088
0.081125,-0.005237344652
0.08114583333,-0.005207119975
0.08116666667,-0.005192516837
0.0811875,-0.005183345173
0.08120833333,-0.005195031408
0.08122916667,-0.005208736286
0.08125,-0.005196477752
0.08127083333,-0.005174988881
0.08129166667,-0.005172677338
0.0813125,-0.005166487303
0.08133333333,-0.005143015645
0.08135416667,-0.005115671549
0.081375,-0.005067090038
0.08139583333,-0.00499481149
0.08141666667,-0.004909772426
0.0814375,-0.004803602584
0.08145833333,-0.004704652354
0.08147916667,-0.004584226757
0.0815,-0.004476128146
0.08152083333,-0.004373413976
0.08154166667,-0.004249211866
0.0815625,-0.004127471242
0.08158333333,-0.004014121369
0.08160416667,-0.003927463666
0.081625,-0.003823186969
0.08164583333,-0.003723030211
0.08166666667,-0.00360761839
0.0816875,-0.003467895556
0.08170833333,-0.003321062075
0.08172916667,-0.003219850827
0.08175,-0.00318001234
0.08177083333,-0.003062537638
0.08179166667,-0.002986863488
0.0818125,-0.002928410657
0.08183333333,-0.002780603012
0.08185416667,-0.002709762659
0.081875,-0.002611236181
0.08189583333,-0.00248639565
0.08191666667,-0.002444221871
0.0819375,-0.002370653441
0.08195833333,-0.002306490904
0.08197916667,-0.002242470626
0.082,-0.002191609936
0.08202083333,-0.002118888544
0.08204166667,-0.002013589023
0.0820625,-0.00189247157
0.08208333333,-0.001772309653
0.08210416667,-0.001693307655
0.082125,-0.001618014881
0.08214583333,-0.001538967947
0.08216666667,-0.001417373307
0.0821875,-0.001287400606
0.08220833333,-0.001184006804
0.08222916667,-0.001065238612
0.08225,-0.0009458406712
0.08227083333,-0.0008127493784
0.08229166667,-0.0006649526767
0.0823125,-0.0005094658118
0.08233333333,-0.0003293898772
0.08235416667,-0.0001733598183
0.082375,-2.352516822e-05
0.08239583333,0.0001078300993
0.08241666667,0.0002301767236
0.0824375,0.0003646399709
0.08245833333,0.0005177928833
0.08247916667,0.0006637187907
0.0825,0.0007893313887
0.08252083333,0.0009279420483
0.08254166667,0.00103540381
0.0825625,0.00113920623
0.08258333333,0.001289026346
0.08260416667,0.001401043497
0.082625,0.001509897062
0.08264583333,0.001636934816
0.08266666667,0.001757807797
0.0826875,0.001890811021
0.08270833333,0.001994783292
0.08272916667,0.002066517016
0.08275,0.002118809381
0.08277083333,0.002213713946
0.08279166667,0.002299603075
0.0828125,0.002302875277
0.08283333333,0.002396511612
0.08285416667,0.002501175739
0.082875,0.002529366873
0.08289583333,0.002588697709
0.08291666667,0.002661670092
0.0829375,0.002729191212
0.08295833333,0.002806225093
0.08297916667,0.002854791703
0.083,0.002881538589
0.08302083333,0.002908176044
0.08304166667,0.002949920017
0.0830625,0.002966671949
0.08308333333,0.002976570278
0.08310416667,0.002983720973
0.083125,0.002991926856
0.08314583333,0.003003511578
0.08316666667,0.003045241581
0.0831875,0.003065492259
0.08320833333,0.003089458914
0.08322916667,0.003132463899
0.08325,0.003149376018
0.08327083333,0.003178031649
0.08329166667,0.003186306451
0.0833125,0.003230676986
0.08333333333,0.003295931267
0.08335416667,0.003307161387
0.083375,0.003347279737
0.08339583333,0.003373211948
0.08341666667,0.003379150759
0.0834375,0.00338614569
0.08345833333,0.003404333256
0.08347916667,0.003473917488
0.0835,0.003521147417
0.08352083333,0.003593740985
0.08354166667,0.00363563397
0.0835625,0.003661231371
0.08358333333,0.003719571978
0.08360416667,0.003721155459
0.083625,0.003790498246
0.08364583333,0.00385284354
0.08366666667,0.003903131466
0.0836875,0.004041575361
0.08370833333,0.004081205465
0.08372916667,0.004148140084
0.08375,0.004243415315
0.08377083333,0.004241343588
0.08379166667,0.004327186383
0.0838125,0.00441083638
0.08383333333,0.004459291697
0.08385416667,0.004524484742
0.083875,0.004581524059
0.08389583333,0.004638172686
0.08391666667,0.004696961958
0.0839375,0.004772234708
0.08395833333,0.00481079286
0.08397916667,0.00486731343
0.084,0.004950387869
0.08402083333,0.005010545719
0.08404166667,0.005103709642
0.0840625,0.005213619675
0.08408333333,0.005347706843
0.08410416667,0.005460978951
0.084125,0.005548785906
0.08414583333,0.005678038113
0.08416666667,0.005789982621
0.0841875,0.0059212544
0.08420833333,0.006040859967
0.08422916667,0.00612995727
0.08425,0.006258140318
0.08427083333,0.00636357395
0.08429166667,0.006460234523
0.0843125,0.006572330371
0.08433333333,0.006667172536
0.08435416667,0.006772358902
0.084375,0.006872809958
0.08439583333,0.00697409315
0.08441666667,0.00707401894
0.0844375,0.007176966872
0.08445833333,0.007294179406
0.08447916667,0.007404891774
0.0845,0.00752398558
0.08452083333,0.007625021506
0.08454166667,0.007743302267
0.0845625,0.007874733768
0.08458333333,0.007984240539
0.08460416667,0.008108544163
0.084625,0.008190879598
0.08464583333,0.008289205842
0.08466666667,0.008411302231
0.0846875,0.008512645029
0.08470833333,0.008621650748
0.08472916667,0.008699798025
0.08475,0.008783425204
0.08477083333,0.008873532526
0.08479166667,0.008938450366
0.0848125,0.009022150189
0.08483333333,0.009103766643
0.08485416667,0.009162453935
0.084875,0.009222550318
0.08489583333,0.009273050353
0.08491666667,0.009311421774
0.0849375,0.009345672093
0.08495833333,0.009359389544
0.08497916667,0.009369581006
0.085,0.009380521253
0.08502083333,0.009389414452
0.08504166667,0.009400626644
0.0850625,0.009402142838
0.08508333333,0.009384046309
0.08510416667,0.009363810532
0.085125,0.009352735244
0.08514583333,0.009326710366
0.08516666667,0.009303505532
0.0851875,0.009291458875
0.08520833333,0.009285030887
0.08522916667,0.009253856726
0.08525,0.009202781133
0.08527083333,0.009180237539
0.08529166667,0.009161703289
0.0853125,0.009133460931
0.08533333333,0.00911015179
0.08535416667,0.00908185821
0.085375,0.009051426314
0.08539583333,0.009022921324
0.08541666667,0.008993673138
0.0854375,0.008966749534
0.08545833333,0.008951090276
0.08547916667,0.008950971067
0.0855,0.008945027366
0.08552083333,0.008930035867
0.08554166667,0.008926434442
0.0855625,0.008908172138
0.08558333333,0.008911948651
0.08560416667,0.008933427744
0.085625,0.008939619176
0.08564583333,0.009002299979
0.08566666667,0.009042528458
0.0856875,0.009059374221
0.08570833333,0.009104998782
0.08572916667,0.009107775055
0.08575,0.009144978598
0.08577083333,0.009192421101
0.08579166667,0.009240103886
0.0858125,0.009298829362
0.08583333333,0.009350690991
0.08585416667,0.009417527355
0.085875,0.009424484335
0.08589583333,0.009426482953
0.08591666667,0.009456899017
0.0859375,0.009470568039
0.08595833333,0.009505604394
0.08597916667,0.009542492218
0.086,0.009585598484
0.08602083333,0.009616791271
0.08604166667,0.009627500549
0.0860625,0.009628758766
0.08608333333,0.009623145685
0.08610416667,0.009660774842
0.086125,0.009707128629
0.08614583333,0.009759260342
0.08616666667,0.009829812683
0.0861875,0.009884907864
0.08620833333,0.009956582449
0.08622916667,0.01000499167
0.08625,0.01004261523
0.08627083333,0.01011183206
0.08629166667,0.01014364325
0.0863125,0.01016627997
0.08633333333,0.01019223128
0.08635416667,0.01022114791
0.086375,0.01026828401
0.08639583333,0.01029949356
0.08641666667,0.01033299975
0.0864375,0.01034045406
0.08645833333,0.01035198476
0.08647916667,0.01038416289
0.0865,0.01038995385
0.08652083333,0.0104042571
0.08654166667,0.01042598765
0.0865625,0.01043859683
0.08658333333,0.01044443529
0.08660416667,0.01045087911
0.086625,0.01043818798
0.08664583333,0.01040872466
0.08666666667,0.01039848104
0.0866875,0.01035630144
0.08670833333,0.01030591968
0.08672916667,0.01031713467
0.08675,0.01032440644
0.08677083333,0.01030251291
0.08679166667,0.01029676571
0.0868125,0.01030111406
0.08683333333,0.01030024607
0.08685416667,0.01033708546
0.086875,0.01036592666
0.08689583333,0.01037769206
0.08691666667,0.01041865908
0.0869375,0.01045395155
0.08695833333,0.01050241664
0.08697916667,0.01057709008
0.087,0.01065250672
0.08702083333,0.01073507499
0.08704166667,0.01082131173
0.0870625,0.0108996192
0.08708333333,0.01095972303
0.08710416667,0.01104187965
0.087125,0.01111696195
0.08714583333,0.01119991206
0.08716666667,0.01132457517
0.0871875,0.01138876658
0.08720833333,0.01146590617
0.08722916667,0.01154022478
0.08725,0.01157071907
0.08727083333,0.01164214779
0.08729166667,0.01167657413
0.0873125,0.01170806494
0.08733333333,0.01174623147
0.08735416667,0.01174505241
0.087375,0.01174882147
0.08739583333,0.01172613166
0.08741666667,0.0117069846
0.0874375,0.01166434027
0.08745833333,0.01160955988
0.08747916667,0.01155244187
0.0875,0.01147358026
0.08752083333,0.01142758597
0.08754166667,0.01134359278
0.0875625,0.01125240605
0.08758333333,0.01117486879
0.08760416667,0.01108089462
0.087625,0.01101482008
0.08764583333,0.0109281484
0.08766666667,0.01084396988
0.0876875,0.01077647973
0.08770833333,0.01067631599
0.08772916667,0.01060305722
0.08775,0.01054084487
0.08777083333,0.01043605711
0.08779166667,0.01033924054
0.0878125,0.01026868634
0.08783333333,0.01018054876
0.08785416667,0.01010147389
0.087875,0.01002725307
0.08789583333,0.009958202951
0.08791666667,0.009903940372
0.0879375,0.009828240611
0.08795833333,0.009782155976
0.08797916667,0.009735384956
0.088,0.009681644849
0.08802083333,0.009642044082
0.08804166667,0.009595308453
0.0880625,0.009559332393
0.08808333333,0.009515289217
0.08810416667,0.009484319016
0.088125,0.009467873722
0.08814583333,0.009464198723
0.08816666667,0.009491825476
0.0881875,0.009510626085
0.08820833333,0.009522483684
0.08822916667,0.009533623233
0.08825,0.009555360302
0.08827083333,0.009604743682
0.08829166667,0.009656033479
0.0883125,0.009718662128
0.08833333333,0.009787492454
0.08835416667,0.009818778373
0.088375,0.009852268733
0.08839583333,0.009895688854
0.08841666667,0.009921920486
0.0884375,0.009979674593
0.08845833333,0.01003224961
0.08847916667,0.0100869108
0.0885,0.01014201809
0.08852083333,0.01015905757
0.08854166667,0.01020136382
0.0885625,0.01026140712
0.08858333333,0.0103173852
0.08860416667,0.01037056372
0.088625,0.01042287331
0.08864583333,0.01048289519
0.08866666667,0.0105352588
0.0886875,0.01057265513
0.08870833333,0.01060214359
0.08872916667,0.0106105376
0.08875,0.01062604226
