time,data
0,8.574371435e-09
2.083333333e-05,1.025486807e-09
4.166666667e-05,-6.170262079e-09
6.25e-05,-1.29442812e-08
8.333333333e-05,-1.975822883e-08
0.0001041666667,-2.691407452e-08
0.000125,-3.449524044e-08
0.0001458333333,-4.237637441e-08
0.0001666666667,-5.010202386e-08
0.0001875,-5.767133615e-08
0.0002083333333,-6.508280137e-08
0.0002291666667,-7.285878212e-08
0.00025,-8.126289686e-08
0.0002708333333,-9.036659776e-08
0.0002916666667,-9.997885542e-08
0.0003125,-1.095853506e-07
0.0003333333333,-1.191312151e-07
0.0003541666667,-1.284715125e-07
0.000375,-1.380088293e-07
0.0003958333333,-1.478349532e-07
0.0004166666667,-1.579218036e-07
0.0004375,-1.680420212e-07
0.0004583333333,-1.776636367e-07
0.0004791666667,-1.867536099e-07
0.0005,-1.951335378e-07
0.0005208333333,-2.032403899e-07
0.0005416666667,-2.112294482e-07
0.0005625,-2.192674486e-07
0.0005833333333,-2.272930715e-07
0.0006041666667,-2.349070911e-07
0.000625,-2.420383964e-07
0.0006458333333,-2.483773187e-07
0.0006666666667,-2.542647053e-07
0.0006875,-2.597803075e-07
0.0007083333333,-2.651636919e-07
0.0007291666667,-2.70293782e-07
0.00075,-2.746157577e-07
0.0007708333333,-2.777976817e-07
0.0007916666667,-2.792298801e-07
0.0008125,-2.792935732e-07
0.0008333333333,-2.781987405e-07
0.0008541666667,-2.76565487e-07
0.000875,-2.744806977e-07
0.0008958333333,-2.714253071e-07
0.0009166666667,-2.670437311e-07
0.0009375,-2.607184229e-07
0.0009583333333,-2.530939014e-07
0.0009791666667,-2.447411589e-07
0.001,-2.365022311e-07
0.001020833333,-2.284472771e-07
0.001041666667,-2.196586451e-07
0.0010625,-2.093820228e-07
0.001083333333,-1.967464272e-07
0.001104166667,-1.82413487e-07
0.001125,-1.671072454e-07
0.001145833333,-1.517309727e-07
0.001166666667,-1.361556343e-07
0.0011875,-1.193233459e-07
0.001208333333,-1.003386316e-07
0.001229166667,-7.870077923e-08
0.00125,-5.553823712e-08
0.001270833333,-3.206766053e-08
0.001291666667,-9.496210929e-09
0.0013125,1.238331926e-08
0.001333333333,3.466473686e-08
0.001354166667,5.825239313e-08
0.001375,8.359833004e-08
0.001395833333,1.094058888e-07
0.001416666667,1.347495697e-07
0.0014375,1.586917051e-07
0.001458333333,1.819554427e-07
0.001479166667,2.058843762e-07
0.0015,2.314029501e-07
0.001520833333,2.588521397e-07
0.001541666667,2.868312379e-07
0.0015625,3.143268827e-07
0.001583333333,3.403910966e-07
0.001604166667,3.654064358e-07
0.001625,3.903120103e-07
0.001645833333,4.155100157e-07
0.001666666667,4.41041152e-07
0.0016875,4.65518724e-07
0.001708333333,4.881398468e-07
0.001729166667,5.080702294e-07
0.00175,5.25874384e-07
0.001770833333,5.423844982e-07
0.001791666667,5.584033147e-07
0.0018125,5.743794986e-07
0.001833333333,5.895992103e-07
0.001854166667,6.036698892e-07
0.001875,6.156924428e-07
0.001895833333,6.258810572e-07
0.001916666667,6.347004273e-07
0.0019375,6.426836308e-07
0.001958333333,6.504672569e-07
0.001979166667,6.571202675e-07
0.002,6.620201134e-07
0.002020833333,6.634980423e-07
0.002041666667,6.612254992e-07
0.0020625,6.55583392e-07
0.002083333333,6.476153089e-07
0.002104166667,6.387351164e-07
0.002125,6.287140764e-07
0.002145833333,6.169516951e-07
0.002166666667,6.019109264e-07
0.0021875,5.831355452e-07
0.002208333333,5.616968792e-07
0.002229166667,5.392658977e-07
0.00225,5.177681146e-07
0.002270833333,4.968100029e-07
0.002291666667,4.749581706e-07
0.0023125,4.497216537e-07
0.002333333333,4.201784236e-07
0.002354166667,3.871957688e-07
0.002375,3.52918164e-07
0.002395833333,3.190598079e-07
0.002416666667,2.851467968e-07
0.0024375,2.492311921e-07
0.002458333333,2.089064282e-07
0.002479166667,1.638537128e-07
0.0025,1.160008622e-07
0.002520833333,6.834654442e-08
0.002541666667,2.322144788e-08
0.0025625,-2.00344612e-08
0.002583333333,-6.325291224e-08
0.002604166667,-1.090032242e-07
0.002625,-1.573161938e-07
0.002645833333,-2.064155211e-07
0.002666666667,-2.537425132e-07
0.0026875,-2.979054443e-07
0.002708333333,-3.402668085e-07
0.002729166667,-3.832774382e-07
0.00275,-4.292381277e-07
0.002770833333,-4.782452265e-07
0.002791666667,-5.281668223e-07
0.0028125,-5.766863751e-07
0.002833333333,-6.220685123e-07
0.002854166667,-6.651914077e-07
0.002875,-7.073315373e-07
0.002895833333,-7.499157846e-07
0.002916666667,-7.923995895e-07
0.0029375,-8.329973298e-07
0.002958333333,-8.697116982e-07
0.002979166667,-9.013922408e-07
0.003,-9.287397802e-07
0.003020833333,-9.532928402e-07
0.003041666667,-9.7669556e-07
0.0030625,-9.997106645e-07
0.003083333333,-1.021624712e-06
0.003104166667,-1.041472387e-06
0.003125,-1.057813506e-06
0.003145833333,-1.070785515e-06
0.003166666667,-1.080831794e-06
0.0031875,-1.089495413e-06
0.003208333333,-1.097370045e-06
0.003229166667,-1.103936597e-06
0.00325,-1.107405637e-06
0.003270833333,-1.105254341e-06
0.003291666667,-1.096415644e-06
0.0033125,-1.081331675e-06
0.003333333333,-1.062223646e-06
0.003354166667,-1.041523092e-06
0.003375,-1.019405204e-06
0.003395833333,-9.949098967e-07
0.003416666667,-9.649846788e-07
0.0034375,-9.290564549e-07
0.003458333333,-8.882365705e-07
0.003479166667,-8.461494758e-07
0.0035,-8.058768231e-07
0.003520833333,-7.673955906e-07
0.003541666667,-7.28023906e-07
0.0035625,-6.834641226e-07
0.003583333333,-6.317404768e-07
0.003604166667,-5.743626161e-07
0.003625,-5.149353228e-07
0.003645833333,-4.568307759e-07
0.003666666667,-3.992453799e-07
0.0036875,-3.39101689e-07
0.003708333333,-2.719257282e-07
0.003729166667,-1.972981352e-07
0.00375,-1.180649605e-07
0.003770833333,-3.98735871e-08
0.003791666667,3.366987045e-08
0.0038125,1.030623551e-07
0.003833333333,1.718619558e-07
0.003854166667,2.442476159e-07
0.003875,3.20524066e-07
0.003895833333,3.977137908e-07
0.003916666667,4.714127328e-07
0.0039375,5.391514151e-07
0.003958333333,6.03426713e-07
0.003979166667,6.679850912e-07
0.004,7.374553661e-07
0.004020833333,8.112266983e-07
0.004041666667,8.865513337e-07
0.0040625,9.586644865e-07
0.004083333333,1.025276106e-06
0.004104166667,1.08747281e-06
0.004125,1.14775321e-06
0.004145833333,1.208581807e-06
0.004166666667,1.268961682e-06
0.0041875,1.326015422e-06
0.004208333333,1.376184059e-06
0.004229166667,1.417571298e-06
0.00425,1.451754656e-06
0.004270833333,1.480921924e-06
0.004291666667,1.508868991e-06
0.0043125,1.535610181e-06
0.004333333333,1.56111571e-06
0.004354166667,1.582321602e-06
0.004375,1.597909431e-06
0.004395833333,1.607673994e-06
0.004416666667,1.612847541e-06
0.0044375,1.616424584e-06
0.004458333333,1.618705369e-06
0.004479166667,1.619312116e-06
0.0045,1.614469056e-06
0.004520833333,1.600353357e-06
0.004541666667,1.575804845e-06
0.0045625,1.541074084e-06
0.004583333333,1.501473093e-06
0.004604166667,1.458962288e-06
0.004625,1.415544602e-06
0.004645833333,1.367462914e-06
0.004666666667,1.311267283e-06
0.0046875,1.245516046e-06
0.004708333333,1.172515454e-06
0.004729166667,1.098867756e-06
0.00475,1.028351107e-06
0.004770833333,9.617351679e-07
0.004791666667,8.934636639e-07
0.0048125,8.171286368e-07
0.004833333333,7.302170957e-07
0.004854166667,6.344548069e-07
0.004875,5.376037393e-07
0.004895833333,4.425979512e-07
0.004916666667,3.503116091e-07
0.0049375,2.532896133e-07
0.004958333333,1.463155854e-07
0.004979166667,2.785744968e-08
0.005,-9.695011016e-08
0.005020833333,-2.186159236e-07
0.005041666667,-3.326732951e-07
0.0050625,-4.388142258e-07
0.005083333333,-5.441442568e-07
0.005104166667,-6.543495488e-07
0.005125,-7.698554327e-07
0.005145833333,-8.866166468e-07
0.005166666667,-9.95967639e-07
0.0051875,-1.096639835e-06
0.005208333333,-1.18973287e-06
0.005229166667,-1.284144446e-06
0.00525,-1.384397478e-06
0.005270833333,-1.491362923e-06
0.005291666667,-1.599748316e-06
0.0053125,-1.702182999e-06
0.005333333333,-1.796152219e-06
0.005354166667,-1.881863341e-06
0.005375,-1.964988542e-06
0.005395833333,-2.047708676e-06
0.005416666667,-2.129472932e-06
0.0054375,-2.205970532e-06
0.005458333333,-2.270671985e-06
0.005479166667,-2.323184162e-06
0.0055,-2.362515488e-06
0.005520833333,-2.395900538e-06
0.005541666667,-2.425057346e-06
0.0055625,-2.453402885e-06
0.005583333333,-2.478824172e-06
0.005604166667,-2.497616151e-06
0.005625,-2.508685384e-06
0.005645833333,-2.50962853e-06
0.005666666667,-2.504898021e-06
0.0056875,-2.49605273e-06
0.005708333333,-2.485668119e-06
0.005729166667,-2.47265325e-06
0.00575,-2.450781267e-06
0.005770833333,-2.417215001e-06
0.005791666667,-2.366106855e-06
0.0058125,-2.302528173e-06
0.005833333333,-2.229098527e-06
0.005854166667,-2.153049081e-06
0.005875,-2.074617441e-06
0.005895833333,-1.989898692e-06
0.005916666667,-1.894645152e-06
0.0059375,-1.784556389e-06
0.005958333333,-1.665836749e-06
0.005979166667,-1.544463885e-06
0.006,-1.428725e-06
0.006020833333,-1.318470709e-06
0.006041666667,-1.205761578e-06
0.0060625,-1.083848474e-06
0.006083333333,-9.449184404e-07
0.006104166667,-7.966104931e-07
0.006125,-6.438716582e-07
0.006145833333,-4.963742413e-07
0.006166666667,-3.514066691e-07
0.0061875,-2.009335418e-07
0.006208333333,-3.76704854e-08
0.006229166667,1.42442758e-07
0.00625,3.290034556e-07
0.006270833333,5.126046858e-07
0.006291666667,6.835438171e-07
0.0063125,8.435059158e-07
0.006333333333,1.001887199e-06
0.006354166667,1.164820901e-06
0.006375,1.336486434e-06
0.006395833333,1.506060812e-06
0.006416666667,1.667673473e-06
0.0064375,1.813525841e-06
0.006458333333,1.950637397e-06
0.006479166667,2.087490202e-06
0.0065,2.232046199e-06
0.006520833333,2.385816515e-06
0.006541666667,2.538804893e-06
0.0065625,2.684873834e-06
0.006583333333,2.816092774e-06
0.006604166667,2.936937335e-06
0.006625,3.052872216e-06
0.006645833333,3.166757551e-06
0.006666666667,3.280371402e-06
0.0066875,3.38229529e-06
0.006708333333,3.470627917e-06
0.006729166667,3.537246357e-06
0.00675,3.588343816e-06
0.006770833333,3.62839728e-06
0.006791666667,3.663007647e-06
0.0068125,3.696178965e-06
0.006833333333,3.72267823e-06
0.006854166667,3.741478849e-06
0.006875,3.746030416e-06
0.006895833333,3.738407713e-06
0.006916666667,3.721186658e-06
0.0069375,3.698072987e-06
0.006958333333,3.673885658e-06
0.006979166667,3.642325964e-06
0.007,3.60176864e-06
0.007020833333,3.539559884e-06
0.007041666667,3.457043249e-06
0.0070625,3.353613693e-06
0.007083333333,3.23861741e-06
0.007104166667,3.119736675e-06
0.007125,2.995743898e-06
0.007145833333,2.865322813e-06
0.007166666667,2.716309382e-06
0.0071875,2.549773171e-06
0.007208333333,2.369071126e-06
0.007229166667,2.185747917e-06
0.00725,2.011639936e-06
0.007270833333,1.842069537e-06
0.007291666667,1.673282668e-06
0.0073125,1.486147539e-06
0.007333333333,1.2806114e-06
0.007354166667,1.058016665e-06
0.007375,8.326384204e-07
0.007395833333,6.142225857e-07
0.007416666667,3.985509807e-07
0.0074375,1.781456405e-07
0.007458333333,-6.353030102e-08
0.007479166667,-3.246159679e-07
0.0075,-5.971316455e-07
0.007520833333,-8.636393432e-07
0.007541666667,-1.111472898e-06
0.0075625,-1.346186878e-06
0.007583333333,-1.574064981e-06
0.007604166667,-1.813254926e-06
0.007625,-2.058708333e-06
0.007645833333,-2.306078159e-06
0.007666666667,-2.538394028e-06
0.0076875,-2.750482736e-06
0.007708333333,-2.94980282e-06
0.007729166667,-3.146202516e-06
0.00775,-3.355668014e-06
0.007770833333,-3.573431513e-06
0.007791666667,-3.793533779e-06
0.0078125,-4.001142315e-06
0.007833333333,-4.188879757e-06
0.007854166667,-4.362891104e-06
0.007875,-4.525781605e-06
0.007895833333,-4.690475635e-06
0.007916666667,-4.847919627e-06
0.0079375,-4.995853942e-06
0.007958333333,-5.119923571e-06
0.007979166667,-5.217732451e-06
0.008,-5.292873993e-06
0.008020833333,-5.35063964e-06
0.008041666667,-5.403524028e-06
0.0080625,-5.449379387e-06
0.008083333333,-5.490600415e-06
0.008104166667,-5.517998943e-06
0.008125,-5.527781923e-06
0.008145833333,-5.521238108e-06
0.008166666667,-5.497714483e-06
0.0081875,-5.470236374e-06
0.008208333333,-5.433997558e-06
0.008229166667,-5.394631444e-06
0.00825,-5.337082257e-06
0.008270833333,-5.255662018e-06
0.008291666667,-5.144451734e-06
0.0083125,-5.004411378e-06
0.008333333333,-4.85056853e-06
0.008354166667,-4.686139619e-06
0.008375,-4.519988579e-06
0.008395833333,-4.340696705e-06
0.008416666667,-4.14041051e-06
0.0084375,-3.916204605e-06
0.008458333333,-3.67030043e-06
0.008479166667,-3.424794613e-06
0.0085,-3.183368335e-06
0.008520833333,-2.955444643e-06
0.008541666667,-2.721228611e-06
0.0085625,-2.469346782e-06
0.008583333333,-2.189928864e-06
0.008604166667,-1.888205702e-06
0.008625,-1.584001325e-06
0.008645833333,-1.283591928e-06
0.008666666667,-9.918618389e-07
0.0086875,-6.887806876e-07
0.008708333333,-3.625963529e-07
0.008729166667,-9.650252153e-09
0.00875,3.595699525e-07
0.008770833333,7.176005283e-07
0.008791666667,1.058765179e-06
0.0088125,1.375190095e-06
0.008833333333,1.691099897e-06
0.008854166667,2.01393982e-06
0.008875,2.349752094e-06
0.008895833333,2.68593385e-06
0.008916666667,3.002010772e-06
0.0089375,3.296270506e-06
0.008958333333,3.568704642e-06
0.008979166667,3.843631021e-06
0.009,4.129914942e-06
0.009020833333,4.429773071e-06
0.009041666667,4.732406524e-06
0.0090625,5.015665465e-06
0.009083333333,5.279653578e-06
0.009104166667,5.517843874e-06
0.009125,5.750790478e-06
0.009145833333,5.977773526e-06
0.009166666667,6.201623364e-06
0.0091875,6.40950384e-06
0.009208333333,6.586713425e-06
0.009229166667,6.732623206e-06
0.00925,6.844563359e-06
0.009270833333,6.940429103e-06
0.009291666667,7.024566912e-06
0.0093125,7.104128599e-06
0.009333333333,7.175600331e-06
0.009354166667,7.227338756e-06
0.009375,7.260307484e-06
0.009395833333,7.264627129e-06
0.009416666667,7.256539902e-06
0.0094375,7.234330042e-06
0.009458333333,7.209774594e-06
0.009479166667,7.174907751e-06
0.0095,7.118475423e-06
0.009520833333,7.031523637e-06
0.009541666667,6.90140314e-06
0.0095625,6.741302968e-06
0.009583333333,6.557050256e-06
0.009604166667,6.366264643e-06
0.009625,6.169512289e-06
0.009645833333,5.955120287e-06
0.009666666667,5.716344276e-06
0.0096875,5.438853805e-06
0.009708333333,5.143336239e-06
0.009729166667,4.838528639e-06
0.00975,4.54936162e-06
0.009770833333,4.269773854e-06
0.009791666667,3.985129297e-06
0.0098125,3.676038659e-06
0.009833333333,3.327426839e-06
0.009854166667,2.9563505e-06
0.009875,2.575463213e-06
0.009895833333,2.207446187e-06
0.009916666667,1.845248221e-06
0.0099375,1.469738663e-06
0.009958333333,1.065224069e-06
0.009979166667,6.195351148e-07
0.01,5.328367081e-08
0.01002083333,-5.845249689e-07
0.01004166667,-1.061477064e-06
0.0100625,-1.380692765e-06
0.01008333333,-1.637459718e-06
0.01010416667,-1.920847581e-06
0.010125,-2.251651949e-06
0.01014583333,-2.672445817e-06
0.01016666667,-3.064842304e-06
0.0101875,-3.422393092e-06
0.01020833333,-3.74973547e-06
0.01022916667,-4.112277566e-06
0.01025,-4.513409749e-06
0.01027083333,-4.974443073e-06
0.01029166667,-5.454622169e-06
0.0103125,-5.90961281e-06
0.01033333333,-6.29247279e-06
0.01035416667,-6.616446626e-06
0.010375,-6.861411293e-06
0.01039583333,-7.083587207e-06
0.01041666667,-7.239550996e-06
0.0104375,-7.363323675e-06
0.01045833333,-7.511413969e-06
0.01047916667,-7.730365724e-06
0.0105,-7.996431123e-06
0.01052083333,-8.303594768e-06
0.01054166667,-8.569698366e-06
0.0105625,-8.750101188e-06
0.01058333333,-8.834911569e-06
0.01060416667,-8.838291251e-06
0.010625,-8.810049621e-06
0.01064583333,-8.823986718e-06
0.01066666667,-8.813984095e-06
0.0106875,-8.807543054e-06
0.01070833333,-8.73380759e-06
0.01072916667,-8.682075531e-06
0.01075,-8.615034858e-06
0.01077083333,-8.574807907e-06
0.01079166667,-8.542510841e-06
0.0108125,-8.471273759e-06
0.01083333333,-8.356799299e-06
0.01085416667,-8.204659935e-06
0.010875,-7.996178283e-06
0.01089583333,-7.764525435e-06
0.01091666667,-7.399654351e-06
0.0109375,-6.99874181e-06
0.01095833333,-6.513048447e-06
0.01097916667,-6.122612376e-06
0.011,-5.779977073e-06
0.01102083333,-5.552003131e-06
0.01104166667,-5.400127066e-06
0.0110625,-5.169655196e-06
0.01108333333,-4.837223059e-06
0.01110416667,-4.407429969e-06
0.011125,-3.880875738e-06
0.01114583333,-3.375650067e-06
0.01116666667,-2.902394499e-06
0.0111875,-2.520898533e-06
0.01120833333,-2.061653277e-06
0.01122916667,-1.57503905e-06
0.01125,-1.019817887e-06
0.01127083333,-4.668742406e-07
0.01129166667,7.521792611e-08
0.0113125,4.983757549e-07
0.01133333333,8.880618338e-07
0.01135416667,1.244574378e-06
0.011375,1.656415407e-06
0.01139583333,2.102598955e-06
0.01141666667,2.636600584e-06
0.0114375,3.191961923e-06
0.01145833333,3.775935511e-06
0.01147916667,4.254106898e-06
0.0115,4.721727692e-06
0.01152083333,5.069311555e-06
0.01154166667,5.383243206e-06
0.0115625,5.659193903e-06
0.01158333333,5.939668881e-06
0.01160416667,6.272582596e-06
0.011625,6.617136023e-06
0.01164583333,6.986642802e-06
0.01166666667,7.417106644e-06
0.0116875,7.792478755e-06
0.01170833333,8.169156899e-06
0.01172916667,8.414993317e-06
0.01175,8.599638932e-06
0.01177083333,8.726417946e-06
0.01179166667,8.867947145e-06
0.0118125,8.975304809e-06
0.01183333333,9.116584806e-06
0.01185416667,9.17554371e-06
0.011875,9.160365153e-06
0.01189583333,9.15030796e-06
0.01191666667,9.099340787e-06
0.0119375,9.102892363e-06
0.01195833333,9.231125659e-06
0.01197916667,9.327748558e-06
0.012,9.487672287e-06
0.01202083333,9.422370567e-06
0.01204166667,9.292586583e-06
0.0120625,8.997721125e-06
0.01208333333,8.712628187e-06
0.01210416667,8.319238077e-06
0.012125,7.899291631e-06
0.01214583333,7.592867405e-06
0.01216666667,7.354421541e-06
0.0121875,7.082531738e-06
0.01220833333,6.845807093e-06
0.01222916667,6.532868156e-06
0.01225,6.290397323e-06
0.01227083333,5.951685125e-06
0.01229166667,5.607931143e-06
0.0123125,5.24180814e-06
0.01233333333,5.011288522e-06
0.01235416667,4.570558303e-06
0.012375,4.042389719e-06
0.01239583333,3.401123422e-06
0.01241666667,2.682177637e-06
0.0124375,1.891802867e-06
0.01245833333,1.259024884e-06
0.01247916667,7.665322528e-07
0.0125,3.975172831e-07
0.01252083333,9.891968489e-08
0.01254166667,-1.855039926e-07
0.0125625,-6.518389455e-07
0.01258333333,-1.074175771e-06
0.01260416667,-1.586648523e-06
0.012625,-2.059998678e-06
0.01264583333,-2.525657919e-06
0.01266666667,-2.930631808e-06
0.0126875,-3.491008556e-06
0.01270833333,-4.106142114e-06
0.01272916667,-4.813037776e-06
0.01275,-5.52640995e-06
0.01277083333,-6.308885077e-06
0.01279166667,-6.780441254e-06
0.0128125,-7.100617495e-06
0.01283333333,-7.194263617e-06
0.01285416667,-7.188724794e-06
0.012875,-7.257725429e-06
0.01289583333,-7.507085229e-06
0.01291666667,-7.798717888e-06
0.0129375,-8.2302995e-06
0.01295833333,-8.650859854e-06
0.01297916667,-9.037459677e-06
0.013,-9.347484593e-06
0.01302083333,-9.794086509e-06
0.01304166667,-1.017001614e-05
0.0130625,-1.059180886e-05
0.01308333333,-1.073429939e-05
0.01310416667,-1.060682189e-05
0.013125,-1.032493583e-05
0.01314583333,-9.924315236e-06
0.01316666667,-9.522007531e-06
0.0131875,-9.356177543e-06
0.01320833333,-9.277452591e-06
0.01322916667,-9.345114449e-06
0.01325,-9.572143426e-06
0.01327083333,-9.682718883e-06
0.01329166667,-9.752214282e-06
0.0133125,-1.00511761e-05
0.01333333333,-1.006938146e-05
0.01335416667,-9.871250768e-06
0.013375,-9.358221178e-06
0.01339583333,-8.617254025e-06
0.01341666667,-7.72884141e-06
0.0134375,-6.863444924e-06
0.01345833333,-6.026923984e-06
0.01347916667,-5.641645657e-06
0.0135,-5.356112979e-06
0.01352083333,-5.302658792e-06
0.01354166667,-5.293158665e-06
0.0135625,-5.399868314e-06
0.01358333333,-5.315916496e-06
0.01360416667,-5.064935976e-06
0.013625,-4.477657058e-06
0.01364583333,-3.69742088e-06
0.01366666667,-2.757194352e-06
0.0136875,-1.883209052e-06
0.01370833333,-1.000011821e-06
0.01372916667,-3.310582883e-07
0.01375,4.496703809e-07
0.01377083333,1.235281616e-06
0.01379166667,1.86329089e-06
0.0138125,2.136908734e-06
0.01383333333,2.051648607e-06
0.01385416667,1.826107336e-06
0.013875,1.943144525e-06
0.01389583333,2.334133569e-06
0.01391666667,3.179398391e-06
0.0139375,4.407129381e-06
0.01395833333,5.60990793e-06
0.01397916667,6.690837381e-06
0.014,7.493367775e-06
0.01402083333,7.736156476e-06
0.01404166667,7.905152415e-06
0.0140625,7.827413356e-06
0.01408333333,7.788406947e-06
0.01410416667,7.693757652e-06
0.014125,7.977971109e-06
0.01414583333,8.496546798e-06
0.01416666667,9.180368579e-06
0.0141875,9.961598153e-06
0.01420833333,1.044350665e-05
0.01422916667,1.079676076e-05
0.01425,1.119607532e-05
0.01427083333,1.148607316e-05
0.01429166667,1.198069367e-05
0.0143125,1.242682538e-05
0.01433333333,1.243644056e-05
0.01435416667,1.168355539e-05
0.014375,1.056868223e-05
0.01439583333,9.638946722e-06
0.01441666667,9.516080354e-06
0.0144375,9.890071851e-06
0.01445833333,1.098532084e-05
0.01447916667,1.201025498e-05
0.0145,1.269092718e-05
0.01452083333,1.252984384e-05
0.01454166667,1.180961863e-05
0.0145625,1.074559805e-05
0.01458333333,9.741461326e-06
0.01460416667,8.866206372e-06
0.014625,8.456100659e-06
0.01464583333,8.03702369e-06
0.01466666667,7.961146366e-06
0.0146875,7.793322766e-06
0.01470833333,7.656472008e-06
0.01472916667,7.486782124e-06
0.01475,7.383488082e-06
0.01477083333,7.168684533e-06
0.01479166667,6.89812714e-06
0.0148125,6.755944923e-06
0.01483333333,6.297303116e-06
0.01485416667,5.088498256e-06
0.014875,3.235802978e-06
0.01489583333,1.485336611e-06
0.01491666667,1.522107596e-08
0.0149375,-6.633048315e-07
0.01495833333,-7.239043498e-08
0.01497916667,1.052974767e-06
0.015,2.447115094e-06
0.01502083333,2.853658543e-06
0.01504166667,2.309351885e-06
0.0150625,8.359440926e-07
0.01508333333,-1.222359288e-06
0.01510416667,-3.362214784e-06
0.015125,-4.732361049e-06
0.01514583333,-5.517765203e-06
0.01516666667,-5.8021119e-06
0.0151875,-6.098408448e-06
0.01520833333,-6.370330084e-06
0.01522916667,-6.677037618e-06
0.01525,-6.528911399e-06
0.01527083333,-6.483280686e-06
0.01529166667,-6.199727977e-06
0.0153125,-5.990641512e-06
0.01533333333,-6.211357686e-06
0.01535416667,-7.054389243e-06
0.015375,-7.857088349e-06
0.01539583333,-9.55924861e-06
0.01541666667,-1.120803881e-05
0.0154375,-1.243598308e-05
0.01545833333,-1.301610246e-05
0.01547916667,-1.27609901e-05
0.0155,-1.175501166e-05
0.01552083333,-1.027671442e-05
0.01554166667,-9.235641301e-06
0.0155625,-8.692426491e-06
0.01558333333,-8.95096764e-06
0.01560416667,-9.936525203e-06
0.015625,-1.064182288e-05
0.01564583333,-1.156069629e-05
0.01566666667,-1.187236285e-05
0.0156875,-1.188919941e-05
0.01570833333,-1.187026101e-05
0.01572916667,-1.186498048e-05
0.01575,-1.149767104e-05
0.01577083333,-1.073339081e-05
0.01579166667,-9.554953067e-06
0.0158125,-8.171156878e-06
0.01583333333,-7.27767474e-06
0.01585416667,-6.803616088e-06
0.015875,-6.937645594e-06
0.01589583333,-7.433479368e-06
0.01591666667,-7.604085113e-06
0.0159375,-7.916733921e-06
0.01595833333,-7.407345947e-06
0.01597916667,-7.049299256e-06
0.016,-6.213303095e-06
0.01602083333,-5.239977781e-06
0.01604166667,-4.030568562e-06
0.0160625,-3.220359758e-06
0.01608333333,-2.301990889e-06
0.01610416667,-1.268092888e-06
0.016125,-6.149422234e-07
0.01614583333,-1.415567112e-07
0.01616666667,-7.4081413e-08
0.0161875,1.505826219e-07
0.01620833333,3.008273666e-07
0.01622916667,2.101163545e-07
0.01625,7.319978295e-07
0.01627083333,1.545591431e-06
0.01629166667,3.295561328e-06
0.0163125,5.00905071e-06
0.01633333333,6.454889444e-06
0.01635416667,7.052166438e-06
0.016375,7.093736258e-06
0.01639583333,6.994213891e-06
0.01641666667,6.688819212e-06
0.0164375,6.740295248e-06
0.01645833333,7.191116765e-06
0.01647916667,8.625347618e-06
0.0165,9.625476196e-06
0.01652083333,1.007156152e-05
0.01654166667,1.059892202e-05
0.0165625,1.089654779e-05
0.01658333333,1.17885229e-05
0.01660416667,1.194441575e-05
0.016625,1.280212109e-05
0.01664583333,1.291452827e-05
0.01666666667,1.309002073e-05
0.0166875,1.302549299e-05
0.01670833333,1.273447651e-05
0.01672916667,1.29132568e-05
0.01675,1.263846389e-05
0.01677083333,1.241660175e-05
0.01679166667,1.320979391e-05
0.0168125,1.404391605e-05
0.01683333333,1.466818867e-05
0.01685416667,1.500671351e-05
0.016875,1.444846657e-05
0.01689583333,1.292404249e-05
0.01691666667,1.172540487e-05
0.0169375,1.06851503e-05
0.01695833333,1.099394103e-05
0.01697916667,1.186226109e-05
0.017,1.308248102e-05
0.01702083333,1.340937888e-05
0.01704166667,1.291168428e-05
0.0170625,1.22028996e-05
0.01708333333,1.101091402e-05
0.01710416667,1.021255048e-05
0.017125,9.487061106e-06
0.01714583333,8.64039248e-06
0.01716666667,7.823218766e-06
0.0171875,6.429417226e-06
0.01720833333,5.326541213e-06
0.01722916667,4.247772722e-06
0.01725,3.839418241e-06
0.01727083333,3.630803349e-06
0.01729166667,3.86966849e-06
0.0173125,4.425559382e-06
0.01733333333,4.903949957e-06
0.01735416667,4.791857464e-06
0.017375,3.689636515e-06
0.01739583333,1.714620794e-06
0.01741666667,-1.207751552e-06
0.0174375,-4.149383585e-06
0.01745833333,-5.824319487e-06
0.01747916667,-6.621637112e-06
0.0175,-6.430469512e-06
0.01752083333,-5.019271157e-06
0.01754166667,-4.50703692e-06
0.0175625,-5.313109341e-06
0.01758333333,-6.440032394e-06
0.01760416667,-7.624461432e-06
0.017625,-9.204118214e-06
0.01764583333,-9.486606359e-06
0.01766666667,-9.656992916e-06
0.0176875,-1.032841647e-05
0.01770833333,-1.154997062e-05
0.01772916667,-1.308433457e-05
0.01775,-1.466188951e-05
0.01777083333,-1.575108399e-05
0.01779166667,-1.515664553e-05
0.0178125,-1.480258834e-05
0.01783333333,-1.405052899e-05
0.01785416667,-1.446302213e-05
0.017875,-1.478254671e-05
0.01789583333,-1.611212974e-05
0.01791666667,-1.705023715e-05
0.0179375,-1.804585918e-05
0.01795833333,-1.889938903e-05
0.01797916667,-1.942258859e-05
0.018,-1.964751573e-05
0.01802083333,-1.900535244e-05
0.01804166667,-1.775932287e-05
0.0180625,-1.763725777e-05
0.01808333333,-1.717596751e-05
0.01810416667,-1.742003406e-05
0.018125,-1.753805373e-05
0.01814583333,-1.830061046e-05
0.01816666667,-1.91805193e-05
0.0181875,-1.936681292e-05
0.01820833333,-1.902948134e-05
0.01822916667,-1.859541044e-05
0.01825,-1.817696466e-05
0.01827083333,-1.699588756e-05
0.01829166667,-1.655238884e-05
0.0183125,-1.548705222e-05
0.01833333333,-1.478437207e-05
0.01835416667,-1.46939301e-05
0.018375,-1.400035853e-05
0.01839583333,-1.417369367e-05
0.01841666667,-1.422399691e-05
0.0184375,-1.388159126e-05
0.01845833333,-1.299482574e-05
0.01847916667,-1.193075514e-05
0.0185,-1.15071407e-05
0.01852083333,-1.035716923e-05
0.01854166667,-9.022051927e-06
0.0185625,-6.89623721e-06
0.01858333333,-5.592982689e-06
0.01860416667,-4.185299986e-06
0.018625,-3.201547088e-06
0.01864583333,-3.553074748e-06
0.01866666667,-4.053341854e-06
0.0186875,-4.981499842e-06
0.01870833333,-4.527204055e-06
0.01872916667,-4.062930202e-06
0.01875,-2.217308065e-06
0.01877083333,-2.410597517e-07
0.01879166667,1.737985258e-06
0.0188125,3.788901267e-06
0.01883333333,4.654679287e-06
0.01885416667,5.872428574e-06
0.018875,6.640384981e-06
0.01889583333,7.197155355e-06
0.01891666667,7.557320259e-06
0.0189375,7.164358067e-06
0.01895833333,7.054218713e-06
0.01897916667,6.913201105e-06
0.019,7.341340734e-06
0.01902083333,7.731810911e-06
0.01904166667,9.434661479e-06
0.0190625,1.115920804e-05
0.01908333333,1.278838954e-05
0.01910416667,1.420738772e-05
0.019125,1.536857235e-05
0.01914583333,1.575790338e-05
0.01916666667,1.505002729e-05
0.0191875,1.446923761e-05
0.01920833333,1.382671235e-05
0.01922916667,1.249357956e-05
0.01925,1.334465378e-05
0.01927083333,1.44208052e-05
0.01929166667,1.589549902e-05
0.0193125,1.725355833e-05
0.01933333333,1.732161581e-05
0.01935416667,1.658850852e-05
0.019375,1.615319161e-05
0.01939583333,1.599962343e-05
0.01941666667,1.665525997e-05
0.0194375,1.772343057e-05
0.01945833333,1.836493539e-05
0.01947916667,1.780005914e-05
0.0195,1.609868195e-05
0.01952083333,1.383223662e-05
0.01954166667,1.260023691e-05
0.0195625,1.195237655e-05
0.01958333333,1.238287678e-05
0.01960416667,1.292814522e-05
0.019625,1.328749022e-05
0.01964583333,1.309067829e-05
0.01966666667,1.216567671e-05
0.0196875,1.196393441e-05
0.01970833333,1.108269589e-05
0.01972916667,1.021163189e-05
0.01975,9.833681361e-06
0.01977083333,8.813217391e-06
0.01979166667,9.420857168e-06
0.0198125,8.898145097e-06
0.01983333333,7.80269329e-06
0.01985416667,5.990726095e-06
0.019875,2.83519762e-06
0.01989583333,2.1586402e-08
0.01991666667,-2.179805506e-06
0.0199375,-3.35683535e-06
0.01995833333,-3.110945272e-06
0.01997916667,-4.710698249e-07
0.02,1.3369302e-05
0.02002083333,1.418930515e-05
0.02004166667,1.372287807e-05
0.0200625,1.228239671e-05
0.02008333333,1.055129269e-05
0.02010416667,9.616282114e-06
0.020125,9.170746125e-06
0.02014583333,8.465066458e-06
0.02016666667,8.11010068e-06
0.0201875,6.285643394e-06
0.02020833333,3.610119165e-06
0.02022916667,1.955963853e-06
0.02025,1.086655175e-06
0.02027083333,2.221641807e-06
0.02029166667,5.148829587e-06
0.0203125,7.548825124e-06
0.02033333333,9.374387446e-06
0.02035416667,8.81870892e-06
0.020375,7.389586244e-06
0.02039583333,5.289591172e-06
0.02041666667,4.978109246e-06
0.0204375,4.608034033e-06
0.02045833333,4.595309292e-06
0.02047916667,5.196385246e-06
0.0205,5.434081686e-06
0.02052083333,5.824364052e-06
0.02054166667,5.841398888e-06
0.0205625,6.591737474e-06
0.02058333333,7.740136425e-06
0.02060416667,9.602739738e-06
0.020625,1.088624504e-05
0.02064583333,1.195117511e-05
0.02066666667,1.331234398e-05
0.0206875,1.295897255e-05
0.02070833333,1.284488462e-05
0.02072916667,1.180290383e-05
0.02075,1.094309664e-05
0.02077083333,1.206211346e-05
0.02079166667,1.360734677e-05
0.0208125,1.629871804e-05
0.02083333333,1.837592936e-05
0.02085416667,1.973337021e-05
0.020875,2.112655056e-05
0.02089583333,2.205601595e-05
0.02091666667,2.383070387e-05
0.0209375,2.521528768e-05
0.02095833333,2.572676931e-05
0.02097916667,2.655858771e-05
0.021,2.746881364e-05
0.02102083333,2.789849168e-05
0.02104166667,2.895048601e-05
0.0210625,2.906133159e-05
0.02108333333,3.018543794e-05
0.02110416667,3.194429155e-05
0.021125,3.365144948e-05
0.02114583333,3.637358532e-05
0.02116666667,3.952951738e-05
0.0211875,4.4432305e-05
0.02120833333,4.79904993e-05
0.02122916667,4.966313281e-05
0.02125,5.030296961e-05
0.02127083333,4.921673099e-05
0.02129166667,4.88207952e-05
0.0213125,4.931331205e-05
0.02133333333,5.002931721e-05
0.02135416667,5.10343998e-05
0.021375,5.262413833e-05
0.02139583333,5.422007234e-05
0.02141666667,5.72976096e-05
0.0214375,6.023134847e-05
0.02145833333,6.267776917e-05
0.02147916667,6.48146306e-05
0.0215,6.548000238e-05
0.02152083333,6.564382056e-05
0.02154166667,6.58253266e-05
0.0215625,6.595015293e-05
0.02158333333,6.649403804e-05
0.02160416667,6.664901593e-05
0.021625,6.67076747e-05
0.02164583333,6.658023631e-05
0.02166666667,6.897482672e-05
0.0216875,7.144283154e-05
0.02170833333,7.507055125e-05
0.02172916667,7.752788224e-05
0.02175,7.945106336e-05
0.02177083333,8.065511065e-05
0.02179166667,8.013093611e-05
0.0218125,7.869562251e-05
0.02183333333,7.773542893e-05
0.02185416667,7.531984011e-05
0.021875,7.354157424e-05
0.02189583333,7.15479764e-05
0.02191666667,7.191780605e-05
0.0219375,7.590026507e-05
0.02195833333,8.012687613e-05
0.02197916667,8.459037781e-05
0.022,8.814829926e-05
0.02202083333,8.712631825e-05
0.02204166667,8.494608483e-05
0.0220625,8.25099487e-05
0.02208333333,7.947137055e-05
0.02210416667,7.812554395e-05
0.022125,7.732572703e-05
0.02214583333,7.479245687e-05
0.02216666667,7.512500451e-05
0.0221875,7.521243242e-05
0.02220833333,7.665300654e-05
0.02222916667,7.755952538e-05
0.02225,7.700620336e-05
0.02227083333,7.747190102e-05
0.02229166667,7.877971802e-05
0.0223125,7.982683019e-05
0.02233333333,7.931693108e-05
0.02235416667,7.660964911e-05
0.022375,7.089687278e-05
0.02239583333,6.264992408e-05
0.02241666667,5.719445107e-05
0.0224375,5.616074486e-05
0.02245833333,6.112033589e-05
0.02247916667,6.995817239e-05
0.0225,7.801153697e-05
0.02252083333,8.099469414e-05
0.02254166667,8.003495168e-05
0.0225625,7.447839016e-05
0.02258333333,6.910708908e-05
0.02260416667,6.498883886e-05
0.022625,6.339728134e-05
0.02264583333,6.213566667e-05
0.02266666667,6.01542597e-05
0.0226875,5.667854566e-05
0.02270833333,5.578072887e-05
0.02272916667,5.570484427e-05
0.02275,5.745279122e-05
0.02277083333,6.033670434e-05
0.02279166667,6.313659833e-05
0.0228125,6.585939991e-05
0.02283333333,6.581538764e-05
0.02285416667,6.393474905e-05
0.022875,6.099765233e-05
0.02289583333,5.385850091e-05
0.02291666667,4.688593617e-05
0.0229375,4.045123933e-05
0.02295833333,3.81124737e-05
0.02297916667,3.987806849e-05
0.023,4.607614392e-05
0.02302083333,5.221181709e-05
0.02304166667,5.616313501e-05
0.0230625,5.616026465e-05
0.02308333333,5.333363515e-05
0.02310416667,5.049263564e-05
0.023125,4.98029076e-05
0.02314583333,4.841216651e-05
0.02316666667,4.731799709e-05
0.0231875,4.578883818e-05
0.02320833333,4.013602302e-05
0.02322916667,3.598732292e-05
0.02325,3.425991599e-05
0.02327083333,3.374133667e-05
0.02329166667,3.681315866e-05
0.0233125,4.029832417e-05
0.02333333333,4.322492896e-05
0.02335416667,4.394057032e-05
0.023375,4.326842463e-05
0.02339583333,3.946802826e-05
0.02341666667,3.595220187e-05
0.0234375,3.145749724e-05
0.02345833333,2.597196362e-05
0.02347916667,2.295042214e-05
0.0235,2.300918641e-05
0.02352083333,2.567441697e-05
0.02354166667,3.09860734e-05
0.0235625,3.352325439e-05
0.02358333333,3.402063157e-05
0.02360416667,3.153186844e-05
0.023625,2.749344094e-05
0.02364583333,2.452110493e-05
0.02366666667,2.458305062e-05
0.0236875,2.493743341e-05
0.02370833333,2.790669896e-05
0.02372916667,2.769480852e-05
0.02375,2.604478505e-05
0.02377083333,2.198384209e-05
0.02379166667,2.021535511e-05
0.0238125,1.781968604e-05
0.02383333333,2.217885412e-05
0.02385416667,2.525868695e-05
0.023875,2.749733176e-05
0.02389583333,2.783596028e-05
0.02391666667,2.547291297e-05
0.0239375,2.153332753e-05
0.02395833333,1.754172808e-05
0.02397916667,1.398549739e-05
0.024,1.332283318e-05
0.02402083333,1.44853957e-05
0.02404166667,1.64622852e-05
0.0240625,1.848015381e-05
0.02408333333,1.933796375e-05
0.02410416667,1.661079295e-05
0.024125,1.272794361e-05
0.02414583333,8.172371963e-06
0.02416666667,5.58110105e-06
0.0241875,3.691709935e-06
0.02420833333,5.333306035e-06
0.02422916667,6.91768355e-06
0.02425,8.645100024e-06
0.02427083333,8.496224837e-06
0.02429166667,7.021113561e-06
0.0243125,5.191775017e-06
0.02433333333,4.605765753e-06
0.02435416667,3.161591849e-06
0.024375,2.325434252e-06
0.02439583333,-7.219286999e-07
0.02441666667,-3.969367754e-06
0.0244375,-7.887364518e-06
0.02445833333,-1.095255539e-05
0.02447916667,-1.330973828e-05
0.0245,-1.326489382e-05
0.02452083333,-1.320073079e-05
0.02454166667,-1.460622116e-05
0.0245625,-1.566886385e-05
0.02458333333,-1.698156848e-05
0.02460416667,-2.151992885e-05
0.024625,-2.735371527e-05
0.02464583333,-3.518246376e-05
0.02466666667,-4.401235492e-05
0.0246875,-5.162319212e-05
0.02470833333,-5.717440945e-05
0.02472916667,-5.973211955e-05
0.02475,-5.832452007e-05
0.02477083333,-5.824844266e-05
0.02479166667,-5.636846981e-05
0.0248125,-5.543366933e-05
0.02483333333,-5.419476292e-05
0.02485416667,-5.419913577e-05
0.024875,-5.395950939e-05
0.02489583333,-5.870673704e-05
0.02491666667,-6.726711581e-05
0.0249375,-7.952406304e-05
0.02495833333,-9.241603402e-05
0.02497916667,-0.0001041161013
0.025,-0.0001090814767
0.02502083333,-0.0001118341315
0.02504166667,-0.0001108537836
0.0250625,-0.0001104543917
0.02508333333,-0.0001132709003
0.02510416667,-0.0001192335403
0.025125,-0.0001252702641
0.02514583333,-0.00013487674
0.02516666667,-0.0001430185657
0.0251875,-0.0001510865259
0.02520833333,-0.0001594012429
0.02522916667,-0.0001648828329
0.02525,-0.0001684969175
0.02527083333,-0.0001713327074
0.02529166667,-0.0001725661423
0.0253125,-0.0001729934302
0.02533333333,-0.000174293149
0.02535416667,-0.0001776019053
0.025375,-0.0001814018178
0.02539583333,-0.0001869892731
0.02541666667,-0.0001939623471
0.0254375,-0.0002026219736
0.02545833333,-0.0002134266251
0.02547916667,-0.0002262910275
0.0255,-0.0002352841402
0.02552083333,-0.0002410633606
0.02554166667,-0.0002439450618
0.0255625,-0.000242702532
0.02558333333,-0.000244142866
0.02560416667,-0.0002481513075
0.025625,-0.0002509294136
0.02564583333,-0.0002585409966
0.02566666667,-0.0002643379848
0.0256875,-0.0002726588864
0.02570833333,-0.0002809168946
0.02572916667,-0.0002897017112
0.02575,-0.0002965088934
0.02577083333,-0.0003042068274
0.02579166667,-0.0003062931646
0.0258125,-0.0003074666893
0.02583333333,-0.0003077161673
0.02585416667,-0.0003115256841
0.025875,-0.000315585552
0.02589583333,-0.0003241621307
0.02591666667,-0.0003297378134
0.0259375,-0.0003358455433
0.02595833333,-0.0003443879541
0.02597916667,-0.0003536865406
0.026,-0.0003595630405
0.02602083333,-0.0003686304262
0.02604166667,-0.000373443414
0.0260625,-0.0003753942729
0.02608333333,-0.0003776458034
0.02610416667,-0.0003815275268
0.026125,-0.0003887819475
0.02614583333,-0.0003971095721
0.02616666667,-0.0004022120265
0.0261875,-0.0004064789682
0.02620833333,-0.0004072196898
0.02622916667,-0.0004070029536
0.02625,-0.000409418979
0.02627083333,-0.0004121169623
0.02629166667,-0.000416047842
0.0263125,-0.0004181034747
0.02633333333,-0.000420704484
0.02635416667,-0.000422903453
0.026375,-0.0004253389488
0.02639583333,-0.0004293592065
0.02641666667,-0.0004339881707
0.0264375,-0.0004380741448
0.02645833333,-0.0004436159797
0.02647916667,-0.0004486763501
0.0265,-0.0004554625484
0.02652083333,-0.0004605812719
0.02654166667,-0.0004623590212
0.0265625,-0.0004628880706
0.02658333333,-0.0004631787888
0.02660416667,-0.0004697910044
0.026625,-0.0004805921053
0.02664583333,-0.0004959044745
0.02666666667,-0.0005093430518
0.0266875,-0.000518820365
0.02670833333,-0.0005204645568
0.02672916667,-0.0005201368476
0.02675,-0.0005181558663
0.02677083333,-0.0005206341739
0.02679166667,-0.0005248698872
0.0268125,-0.0005308114341
0.02683333333,-0.0005332429428
0.02685416667,-0.0005364057724
0.026875,-0.0005394905456
0.02689583333,-0.000550151628
0.02691666667,-0.0005611315719
0.0269375,-0.0005772854784
0.02695833333,-0.0005917979288
0.02697916667,-0.0006012108061
0.027,-0.0006023307797
0.02702083333,-0.000603634282
0.02704166667,-0.0006027385825
0.0270625,-0.0006014611572
0.02708333333,-0.0006046576891
0.02710416667,-0.0006096168654
0.027125,-0.0006183897494
0.02714583333,-0.0006311768666
0.02716666667,-0.0006421033759
0.0271875,-0.0006574455765
0.02720833333,-0.0006685657427
0.02722916667,-0.0006795946392
0.02725,-0.0006922991015
0.02727083333,-0.0007049675332
0.02729166667,-0.0007132833125
0.0273125,-0.0007183056441
0.02733333333,-0.0007192544872
0.02735416667,-0.0007185973227
0.027375,-0.0007239849074
0.02739583333,-0.0007343099569
0.02741666667,-0.000750828709
0.0274375,-0.0007688366459
0.02745833333,-0.0007829646929
0.02747916667,-0.0007906809915
0.0275,-0.0007971714949
0.02752083333,-0.0008024608251
0.02754166667,-0.0008115467499
0.0275625,-0.0008227468934
0.02758333333,-0.0008329905686
0.02760416667,-0.0008406080306
0.027625,-0.0008448657463
0.02764583333,-0.0008530374034
0.02766666667,-0.0008634448168
0.0276875,-0.0008810045547
0.02770833333,-0.0009002587176
0.02772916667,-0.0009189508273
0.02775,-0.0009330069297
0.02777083333,-0.0009433162631
0.02779166667,-0.000947235967
0.0278125,-0.0009491335368
0.02783333333,-0.0009529147646
0.02785416667,-0.0009602318169
0.027875,-0.0009654483292
0.02789583333,-0.0009760200628
0.02791666667,-0.0009809067706
0.0279375,-0.0009883333696
0.02795833333,-0.0009983639466
0.02797916667,-0.001006550621
0.028,-0.001015222631
0.02802083333,-0.00103385793
0.02804166667,-0.001046805992
0.0280625,-0.001060243696
0.02808333333,-0.001069253427
0.02810416667,-0.001072422368
0.028125,-0.001075647073
0.02814583333,-0.001081651542
0.02816666667,-0.001089601079
0.0281875,-0.001107626827
0.02820833333,-0.001126326155
0.02822916667,-0.001144401846
0.02825,-0.001156416489
0.02827083333,-0.001173196593
0.02829166667,-0.001188780181
0.0283125,-0.001214164658
0.02833333333,-0.001244427869
0.02835416667,-0.00127254962
0.028375,-0.001302813063
0.02839583333,-0.001323322067
0.02841666667,-0.001337906229
0.0284375,-0.00134905579
0.02845833333,-0.001360049821
0.02847916667,-0.001373651205
0.0285,-0.001389403129
0.02852083333,-0.001401815098
0.02854166667,-0.001401472953
0.0285625,-0.001398640219
0.02858333333,-0.001395178027
0.02860416667,-0.001397632412
0.028625,-0.001410781173
0.02864583333,-0.001435546787
0.02866666667,-0.001452249126
0.0286875,-0.001458264538
0.02870833333,-0.001447031624
0.02872916667,-0.001424266258
0.02875,-0.001402560971
0.02877083333,-0.001407173695
0.02879166667,-0.001415639068
0.0288125,-0.001434364356
0.02883333333,-0.001445721369
0.02885416667,-0.001448485069
0.028875,-0.001445779228
0.02889583333,-0.001456202939
0.02891666667,-0.001470155315
0.0289375,-0.00149501604
0.02895833333,-0.001529494883
0.02897916667,-0.001540315454
0.029,-0.001531181973
0.02902083333,-0.001523118699
0.02904166667,-0.001500588376
0.0290625,-0.001494284836
0.02908333333,-0.001492247917
0.02910416667,-0.001513603493
0.029125,-0.001529978006
0.02914583333,-0.001565272338
0.02916666667,-0.001591322711
0.0291875,-0.001608129125
0.02920833333,-0.001612549648
0.02922916667,-0.001607519574
0.02925,-0.001596837887
0.02927083333,-0.001594431931
0.02929166667,-0.001609243453
0.0293125,-0.001627144404
0.02933333333,-0.001650175545
0.02935416667,-0.001665126649
0.029375,-0.001658230787
0.02939583333,-0.001665850985
0.02941666667,-0.001691397396
0.0294375,-0.001744773588
0.02945833333,-0.0018168604
0.02947916667,-0.001895733061
0.0295,-0.001956029097
0.02952083333,-0.002004537266
0.02954166667,-0.002012900077
0.0295625,-0.002029242925
0.02958333333,-0.002083862899
0.02960416667,-0.002163194818
0.029625,-0.002268820768
0.02964583333,-0.00234056823
0.02966666667,-0.002413304523
0.0296875,-0.002425849438
0.02970833333,-0.002452629618
0.02972916667,-0.002488943283
0.02975,-0.002538913162
0.02977083333,-0.002599369735
0.02979166667,-0.002638923936
0.0298125,-0.002661187435
0.02983333333,-0.002673835494
0.02985416667,-0.002653760603
0.029875,-0.002606413327
0.02989583333,-0.002577122999
0.02991666667,-0.002525617369
0.0299375,-0.002427417785
0.02995833333,-0.002361458959
0.02997916667,-0.002211021958
0.03,-0.005076475441
0.03002083333,-0.004946052562
0.03004166667,-0.004878250882
0.0300625,-0.004790883511
0.03008333333,-0.004739650525
0.03010416667,-0.004710319918
0.030125,-0.004677767865
0.03014583333,-0.004679911304
0.03016666667,-0.00473903399
0.0301875,-0.004793860484
0.03020833333,-0.004869399127
0.03022916667,-0.004975631833
0.03025,-0.005071281921
0.03027083333,-0.005148190074
0.03029166667,-0.005201546941
0.0303125,-0.005227150861
0.03033333333,-0.005318450741
0.03035416667,-0.005440775305
0.030375,-0.005576928146
0.03039583333,-0.005731438752
0.03041666667,-0.00583229959
0.0304375,-0.005927525461
0.03045833333,-0.006024726667
0.03047916667,-0.006116963923
0.0305,-0.006269684061
0.03052083333,-0.006398626603
0.03054166667,-0.006555473898
0.0305625,-0.006639417261
0.03058333333,-0.00670031039
0.03060416667,-0.006751196925
0.030625,-0.006735288072
0.03064583333,-0.006773328874
0.03066666667,-0.006810237654
0.0306875,-0.006859490648
0.03070833333,-0.006924215239
0.03072916667,-0.007001370657
0.03075,-0.007035655435
0.03077083333,-0.007115809713
0.03079166667,-0.007203777321
0.0308125,-0.00728747109
0.03083333333,-0.007368100341
0.03085416667,-0.007439679001
0.030875,-0.007493216544
0.03089583333,-0.007536122575
0.03091666667,-0.007576401345
0.0309375,-0.007589179091
0.03095833333,-0.007611938752
0.03097916667,-0.007667115889
0.031,-0.007687114179
0.03102083333,-0.007748727221
0.03104166667,-0.007839259692
0.0310625,-0.007912396453
0.03108333333,-0.007983823307
0.03110416667,-0.008018705994
0.031125,-0.00803911034
0.03114583333,-0.008080662228
0.03116666667,-0.00810025353
0.0311875,-0.008161127567
0.03120833333,-0.00816321373
0.03122916667,-0.008179338649
0.03125,-0.008161313832
0.03127083333,-0.008158072829
0.03129166667,-0.008172752336
0.0313125,-0.008198621683
0.03133333333,-0.008272652514
0.03135416667,-0.00833603926
0.031375,-0.008348795585
0.03139583333,-0.008340340108
0.03141666667,-0.008351297118
0.0314375,-0.008324763738
0.03145833333,-0.008302392438
0.03147916667,-0.008311847225
0.0315,-0.008300318383
0.03152083333,-0.008347418159
0.03154166667,-0.008392401971
0.0315625,-0.008464653045
0.03158333333,-0.008533705957
0.03160416667,-0.008603631519
0.031625,-0.008706589229
0.03164583333,-0.008760836907
0.03166666667,-0.008846090175
0.0316875,-0.008909509517
0.03170833333,-0.008912337944
0.03172916667,-0.008940397762
0.03175,-0.008933083154
0.03177083333,-0.008926850744
0.03179166667,-0.008928156458
0.0318125,-0.008978683501
0.03183333333,-0.009009424597
0.03185416667,-0.009025437757
0.031875,-0.009051107801
0.03189583333,-0.009059587494
0.03191666667,-0.009116050787
0.0319375,-0.009145257063
0.03195833333,-0.009207825176
0.03197916667,-0.009244827554
0.032,-0.009240747429
0.03202083333,-0.00924204383
0.03204166667,-0.009253889322
0.0320625,-0.009293036535
0.03208333333,-0.009287568741
0.03210416667,-0.009318438359
0.032125,-0.009348678403
0.03214583333,-0.009379583411
0.03216666667,-0.009408145212
0.0321875,-0.009412979707
0.03220833333,-0.009417940862
0.03222916667,-0.009443971328
0.03225,-0.009410526603
0.03227083333,-0.009394421242
0.03229166667,-0.009370927699
0.0323125,-0.009323330596
0.03233333333,-0.009297509678
0.03235416667,-0.009249206632
0.032375,-0.009231449105
0.03239583333,-0.009244776331
0.03241666667,-0.009237774648
0.0324375,-0.009231072851
0.03245833333,-0.009255884215
0.03247916667,-0.009224943817
0.0325,-0.009159500711
0.03252083333,-0.009056057781
0.03254166667,-0.008974141441
0.0325625,-0.008911534213
0.03258333333,-0.008817374706
0.03260416667,-0.008734386414
0.032625,-0.008661454543
0.03264583333,-0.008645131253
0.03266666667,-0.008594093844
0.0326875,-0.008576497436
0.03270833333,-0.00857047271
0.03272916667,-0.008560408838
0.03275,-0.008541718125
0.03277083333,-0.008512011729
0.03279166667,-0.008438726887
0.0328125,-0.008347864263
0.03283333333,-0.008232744411
0.03285416667,-0.008141770028
0.032875,-0.007947445847
0.03289583333,-0.007912370376
0.03291666667,-0.007787728216
0.0329375,-0.007728871424
0.03295833333,-0.007543689106
0.03297916667,-0.007497149985
0.033,-0.007267056499
0.03302083333,-0.007324001752
0.03304166667,-0.007216688246
0.0330625,-0.007037474308
0.03308333333,-0.006937744096
0.03310416667,-0.006861067843
0.033125,-0.006763407495
0.03314583333,-0.006556455977
0.03316666667,-0.006443633698
0.0331875,-0.00629899418
0.03320833333,-0.006201090757
0.03322916667,-0.00613544276
0.03325,-0.006063900888
0.03327083333,-0.006018894725
0.03329166667,-0.005969628692
0.0333125,-0.005979495123
0.03333333333,-0.005902315956
0.03335416667,-0.005863541737
0.033375,-0.005711893085
0.03339583333,-0.005637171678
0.03341666667,-0.005518364254
0.0334375,-0.005312761758
0.03345833333,-0.00521222502
0.03347916667,-0.005009388551
0.0335,-0.004889928736
0.03352083333,-0.004804901779
0.03354166667,-0.004708147142
0.0335625,-0.004636714701
0.03358333333,-0.004544583149
0.03360416667,-0.00446764566
0.033625,-0.004390955437
0.03364583333,-0.004286970478
0.03366666667,-0.004215775058
0.0336875,-0.004084155429
0.03370833333,-0.003928763326
0.03372916667,-0.003808830399
0.03375,-0.00367733743
0.03377083333,-0.00355372834
0.03379166667,-0.003483809298
0.0338125,-0.003455271479
0.03383333333,-0.003412033431
0.03385416667,-0.003422077512
0.033875,-0.003432049649
0.03389583333,-0.003360829083
0.03391666667,-0.003348818282
0.0339375,-0.003091094783
0.03395833333,-0.003079712391
0.03397916667,-0.003033084329
0.034,-0.002668453846
0.03402083333,-0.002576004248
0.03404166667,-0.002586665098
0.0340625,-0.002427890198
0.03408333333,-0.002223852556
0.03410416667,-0.002153654117
0.034125,-0.001920513809
0.03414583333,-0.001904780976
0.03416666667,-0.001762292348
0.0341875,-0.001652331441
0.03420833333,-0.00153635419
0.03422916667,-0.001377714681
0.03425,-0.001240739832
0.03427083333,-0.001073283725
0.03429166667,-0.0009537228616
0.0343125,-0.000857223873
0.03433333333,-0.0007253980148
0.03435416667,-0.0006486127968
0.034375,-0.0006055526901
0.03439583333,-0.0005988052581
0.03441666667,-0.0005706872325
0.0344375,-0.0005757947802
0.03445833333,-0.0005218673032
0.03447916667,-0.0004673328949
0.0345,-0.0003451370285
0.03452083333,-0.0002389459987
0.03454166667,-0.0001103245158
0.0345625,7.681161514e-05
0.03458333333,0.0001679053094
0.03460416667,0.0002977522672
0.034625,0.0004236866953
0.03464583333,0.0005324847298
0.03466666667,0.0006367358728
0.0346875,0.0006988636451
0.03470833333,0.0007254211232
0.03472916667,0.0008118781843
0.03475,0.0008698089514
0.03477083333,0.0009640412754
0.03479166667,0.001065731514
0.0348125,0.001134453341
0.03483333333,0.001241495134
0.03485416667,0.001362683019
0.034875,0.00146305596
0.03489583333,0.001577366958
0.03491666667,0.001720805885
0.0349375,0.001792917843
0.03495833333,0.001922259806
0.03497916667,0.002030913718
0.035,0.00207250868
0.03502083333,0.002153907903
0.03504166667,0.002300240565
0.0350625,0.002371135633
0.03508333333,0.002498973394
0.03510416667,0.002560265362
0.035125,0.002683366416
0.03514583333,0.002872830257
0.03516666667,0.002963622566
0.0351875,0.003072599648
0.03520833333,0.003123508999
0.03522916667,0.003205063986
0.03525,0.00329844025
0.03527083333,0.003383191302
0.03529166667,0.003460511565
0.0353125,0.00359938154
0.03533333333,0.003749863245
0.03535416667,0.003879013006
0.035375,0.004008223303
0.03539583333,0.004159488715
0.03541666667,0.004231080879
0.0354375,0.004382935818
0.03545833333,0.004491441883
0.03547916667,0.004607776646
0.0355,0.004738248885
0.03552083333,0.004798051436
0.03554166667,0.004914595746
0.0355625,0.004952961579
0.03558333333,0.00501363771
0.03560416667,0.005140977446
0.035625,0.005233224016
0.03564583333,0.005349375308
0.03566666667,0.005457136314
0.0356875,0.005564619787
0.03570833333,0.00567012094
0.03572916667,0.00580328051
0.03575,0.005954165477
0.03577083333,0.00611120509
0.03579166667,0.00620522676
0.0358125,0.006276268512
0.03583333333,0.006382348016
0.03585416667,0.00646498194
0.035875,0.006553291809
0.03589583333,0.006631968543
0.03591666667,0.006705900654
0.0359375,0.00681526307
0.03595833333,0.006907493807
0.03597916667,0.007010572124
0.036,0.007068717387
0.03602083333,0.007208536379
0.03604166667,0.007252705283
0.0360625,0.007289773785
0.03608333333,0.007360346615
0.03610416667,0.007388283033
0.036125,0.007447781507
0.03614583333,0.007517926395
0.03616666667,0.007596636191
0.0361875,0.007685422897
0.03620833333,0.007772836369
0.03622916667,0.007838829421
0.03625,0.007972524501
0.03627083333,0.008099391125
0.03629166667,0.008242575452
0.0363125,0.008338917978
0.03633333333,0.008430688642
0.03635416667,0.008508573286
0.036375,0.008561398834
0.03639583333,0.008617194369
0.03641666667,0.008643948473
0.0364375,0.008764516562
0.03645833333,0.008771761321
0.03647916667,0.008857227862
0.0365,0.009009351954
0.03652083333,0.009137531742
0.03654166667,0.009198407643
0.0365625,0.009360582568
0.03658333333,0.009487161413
0.03660416667,0.009571254253
0.036625,0.009742363356
0.03664583333,0.009857783094
0.03666666667,0.009936811402
0.0366875,0.01002919022
0.03670833333,0.01015643869
0.03672916667,0.01020814758
0.03675,0.01030068845
0.03677083333,0.01036287192
0.03679166667,0.01046803221
0.0368125,0.01058111619
0.03683333333,0.01066852361
0.03685416667,0.01076295692
0.036875,0.01090566441
0.03689583333,0.01102623716
0.03691666667,0.01114936452
0.0369375,0.01123624668
0.03695833333,0.01131762192
0.03697916667,0.01144026872
0.037,0.01150596887
0.03702083333,0.01155011356
0.03704166667,0.01164189726
0.0370625,0.01170488819
0.03708333333,0.01183936
0.03710416667,0.01195807476
0.037125,0.01208658051
0.03714583333,0.01221393049
0.03716666667,0.0123716183
0.0371875,0.0124321077
0.03720833333,0.01254282054
0.03722916667,0.01261574309
0.03725,0.01260612532
0.03727083333,0.01270796359
0.03729166667,0.01271622721
0.0373125,0.0128495805
0.03733333333,0.0130215846
0.03735416667,0.01306925621
0.037375,0.01323600672
0.03739583333,0.01332698204
0.03741666667,0.01341169886
0.0374375,0.01345470548
0.03745833333,0.01354948059
0.03747916667,0.0136668859
0.0375,0.01378463209
0.03752083333,0.01394426171
0.03754166667,0.01398980897
0.0375625,0.01402490959
0.03758333333,0.01407272089
0.03760416667,0.01413822733
0.037625,0.01426201966
0.03764583333,0.01427590009
0.03766666667,0.01433927473
0.0376875,0.01439907122
0.03770833333,0.0144169433
0.03772916667,0.01447266713
0.03775,0.01462376397
0.03777083333,0.01473939419
0.03779166667,0.01489417441
0.0378125,0.01490907185
0.03783333333,0.01501696929
0.03785416667,0.01509836409
0.037875,0.01514365803
0.03789583333,0.01529814117
0.03791666667,0.0154333692
0.0379375,0.01565694623
0.03795833333,0.01588832773
0.03797916667,0.01600814424
0.038,0.01616822742
0.03802083333,0.01632941701
0.03804166667,0.01642553695
0.0380625,0.01644106209
0.03808333333,0.01638400368
0.03810416667,0.01632288657
0.038125,0.01634382643
0.03814583333,0.0163520202
0.03816666667,0.01649830118
0.0381875,0.01660172641
0.03820833333,0.01676579006
0.03822916667,0.0168586392
0.03825,0.01704589464
0.03827083333,0.01715244167
0.03829166667,0.01721295714
0.0383125,0.01733913645
0.03833333333,0.01735618338
0.03835416667,0.01747347042
0.038375,0.01755954325
0.03839583333,0.01762382872
0.03841666667,0.01773319021
0.0384375,0.01784123294
0.03845833333,0.01799063385
0.03847916667,0.01817891002
0.0385,0.01832187921
0.03852083333,0.01843843982
0.03854166667,0.0185986124
0.0385625,0.01879398525
0.03858333333,0.01883917488
0.03860416667,0.01889579743
0.038625,0.01894268207
0.03864583333,0.01889721304
0.03866666667,0.01895016991
0.0386875,0.0189820677
0.03870833333,0.01896936633
0.03872916667,0.01910602488
0.03875,0.01927657053
0.03877083333,0.01941622235
0.03879166667,0.01955973729
0.0388125,0.01976642944
0.03883333333,0.01988463849
0.03885416667,0.02004378848
0.038875,0.02009478584
0.03889583333,0.02016462944
0.03891666667,0.02028314583
0.0389375,0.02030180395
0.03895833333,0.02031064034
0.03897916667,0.02042336948
0.039,0.02055616304
0.03902083333,0.02064874582
0.03904166667,0.02083951235
0.0390625,0.02101456374
0.03908333333,0.02109433338
0.03910416667,0.02128360234
0.039125,0.02142139152
0.03914583333,0.02142755128
0.03916666667,0.0215042159
0.0391875,0.02149033546
0.03920833333,0.02144692093
0.03922916667,0.02144247107
0.03925,0.02142241411
0.03927083333,0.02145555243
0.03929166667,0.0215245802
0.0393125,0.02161231078
0.03933333333,0.02178561501
0.03935416667,0.02200691774
0.039375,0.02214004844
0.03939583333,0.02221144177
0.03941666667,0.02233397774
0.0394375,0.02236924879
0.03945833333,0.02236017957
0.03947916667,0.02248884179
0.0395,0.02252854034
0.03952083333,0.02268857881
0.03954166667,0.02285354957
0.0395625,0.02304760739
0.03958333333,0.02325342596
0.03960416667,0.02324532345
0.039625,0.02341524325
0.03964583333,0.02355575748
0.03966666667,0.0236424692
0.0396875,0.02372015081
0.03970833333,0.02372954786
0.03972916667,0.02382436395
0.03975,0.02386005037
0.03977083333,0.02380972914
0.03979166667,0.02381404117
0.0398125,0.02386881225
0.03983333333,0.02393282764
0.03985416667,0.02402801812
0.039875,0.02417515591
0.03989583333,0.02435663342
0.03991666667,0.02464465797
0.0399375,0.02494274452
0.03995833333,0.02519371174
0.03997916667,0.02542565018
0.04,0.0255637262
0.04002083333,0.02556574531
0.04004166667,0.02561992221
0.0400625,0.02563917451
0.04008333333,0.02568395622
0.04010416667,0.02578595094
0.040125,0.02583254687
0.04014583333,0.02601502091
0.04016666667,0.02609534934
0.0401875,0.02624581568
0.04020833333,0.02643331327
0.04022916667,0.02645788342
0.04025,0.0266191382
0.04027083333,0.02676035836
0.04029166667,0.02687538788
0.0403125,0.0269655101
0.04033333333,0.0270630531
0.04035416667,0.02714754269
0.040375,0.02730771713
0.04039583333,0.02742601559
0.04041666667,0.02772315405
0.0404375,0.02786031365
0.04045833333,0.02800594084
0.04047916667,0.02824154869
0.0405,0.02827142738
0.04052083333,0.02841766551
0.04054166667,0.02841250598
0.0405625,0.02829050459
0.04058333333,0.02831241116
0.04060416667,0.0283457879
0.040625,0.02833820134
0.04064583333,0.02838539705
0.04066666667,0.02853021584
0.0406875,0.02867447026
0.04070833333,0.02894366533
0.04072916667,0.0290346425
0.04075,0.02915483899
0.04077083333,0.02936251089
0.04079166667,0.02937437966
0.0408125,0.02953340113
0.04083333333,0.02946813963
0.04085416667,0.02956621721
0.040875,0.02960698493
0.04089583333,0.02958894707
0.04091666667,0.02972087078
0.0409375,0.02980687842
0.04095833333,0.02988336235
0.04097916667,0.03003369272
0.041,0.03019907698
0.04102083333,0.03028693236
0.04104166667,0.03036573529
0.0410625,0.0304120034
0.04108333333,0.03044378571
0.04110416667,0.03041306324
0.041125,0.03035421856
0.04114583333,0.03028942645
0.04116666667,0.03015849553
0.0411875,0.03012396768
0.04120833333,0.03018017113
0.04122916667,0.03025396168
0.04125,0.03040421009
0.04127083333,0.03063185327
0.04129166667,0.03080448322
0.0413125,0.03103015386
0.04133333333,0.03127705678
0.04135416667,0.03131095693
0.041375,0.0314204134
0.04139583333,0.03147170693
0.04141666667,0.03147570789
0.0414375,0.03145271912
0.04145833333,0.03125676885
0.04147916667,0.0312788412
0.0415,0.03128296882
0.04152083333,0.03130055591
0.04154166667,0.03133127838
0.0415625,0.03139199317
0.04158333333,0.03149843216
0.04160416667,0.03165628016
0.041625,0.03167369217
0.04164583333,0.03166853637
0.04166666667,0.03162800148
0.0416875,0.03139799088
0.04170833333,0.03140328452
0.04172916667,0.03126934916
0.04175,0.03114587255
0.04177083333,0.03101916611
0.04179166667,0.03102354333
0.0418125,0.03096871078
0.04183333333,0.03098402731
0.04185416667,0.03090723418
0.041875,0.03093805723
0.04189583333,0.03093469143
0.04191666667,0.03082472831
0.0419375,0.03074286506
0.04195833333,0.03056369536
0.04197916667,0.03053719923
0.042,0.0303925164
0.04202083333,0.03017425351
0.04204166667,0.03001928329
0.0420625,0.02983267419
0.04208333333,0.02980010025
0.04210416667,0.02974303626
0.042125,0.02977550216
0.04214583333,0.02976000309
0.04216666667,0.02967996709
0.0421875,0.02958046459
0.04220833333,0.02948810905
0.04222916667,0.02939197607
0.04225,0.02918267436
0.04227083333,0.02905019745
0.04229166667,0.02878130414
0.0423125,0.02852712013
0.04233333333,0.02847671695
0.04235416667,0.0283281859
0.042375,0.02835632861
0.04239583333,0.02825294808
0.04241666667,0.02807903662
0.0424375,0.02833824977
0.04245833333,0.02799174935
0.04247916667,0.02808192559
0.0425,0.02819968015
0.04252083333,0.02771766298
0.04254166667,0.02757177316
0.0425625,0.02733891271
0.04258333333,0.02711231448
0.04260416667,0.0268133115
0.042625,0.02660991997
0.04264583333,0.02644020692
0.04266666667,0.02630198188
0.0426875,0.02623539418
0.04270833333,0.02604963444
0.04272916667,0.02579372749
0.04275,0.02548699267
0.04277083333,0.0251235459
0.04279166667,0.02465642802
0.0428125,0.02415752225
0.04283333333,0.02379591763
0.04285416667,0.02336325496
0.042875,0.02293154225
0.04289583333,0.02259011753
0.04291666667,0.02232585289
0.0429375,0.02218642645
0.04295833333,0.02205047943
0.04297916667,0.02193571813
0.043,0.02180181444
0.04302083333,0.02160400338
0.04304166667,0.02136460133
0.0430625,0.02119569667
0.04308333333,0.02080245502
0.04310416667,0.0203963276
0.043125,0.02012238838
0.04314583333,0.01973713934
0.04316666667,0.01950705051
0.0431875,0.01920190826
0.04320833333,0.01901115477
0.04322916667,0.01884232461
0.04325,0.01867675968
0.04327083333,0.01865576208
0.04329166667,0.01848013885
0.0433125,0.01831217483
0.04333333333,0.01823342405
0.04335416667,0.0177337341
0.043375,0.01739816926
0.04339583333,0.01746829413
0.04341666667,0.01691496372
0.0434375,0.01647753455
0.04345833333,0.01649019681
0.04347916667,0.01659198478
0.0435,0.01621885598
0.04352083333,0.01596477814
0.04354166667,0.01589965075
0.0435625,0.01580618508
0.04358333333,0.01572955586
0.04360416667,0.0157143753
0.043625,0.0152975684
0.04364583333,0.01493031345
0.04366666667,0.01456369366
0.0436875,0.01419533417
0.04370833333,0.01389289461
0.04372916667,0.01359154191
0.04375,0.01339787152
0.04377083333,0.0132743204
0.04379166667,0.01320304722
0.0438125,0.01318280119
0.04383333333,0.01314072963
0.04385416667,0.01313099451
0.043875,0.01311593223
0.04389583333,0.01290994138
0.04391666667,0.01275568083
0.0439375,0.01249792427
0.04395833333,0.01223795954
0.04397916667,0.01197500154
0.044,0.01175739057
0.04402083333,0.01163394563
0.04404166667,0.01153771672
0.0440625,0.01149586495
0.04408333333,0.01142208837
0.04410416667,0.01146108005
0.044125,0.0113245286
0.04414583333,0.01120400243
0.04416666667,0.01111267786
0.0441875,0.01086241752
0.04420833333,0.01056380197
0.04422916667,0.01034369599
0.04425,0.009982104413
0.04427083333,0.009844739921
0.04429166667,0.009713622741
0.0443125,0.009551432915
0.04433333333,0.00973375421
0.04435416667,0.00974716153
0.044375,0.009834214114
0.04439583333,0.009714181535
0.04441666667,0.009772866033
0.0444375,0.009685249999
0.04445833333,0.009374565445
0.04447916667,0.009014505893
0.0445,0.00879055541
0.04452083333,0.008498772047
0.04454166667,0.00797085464
0.0445625,0.00753853796
0.04458333333,0.007119176444
0.04460416667,0.006772079971
0.044625,0.006621822715
0.04464583333,0.006389282644
0.04466666667,0.006364797242
0.0446875,0.00626737019
0.04470833333,0.006017907988
0.04472916667,0.005803711712
0.04475,0.005602255929
0.04477083333,0.005288267508
0.04479166667,0.004970874637
0.0448125,0.004651700146
0.04483333333,0.004321282264
0.04485416667,0.004027042072
0.044875,0.003775674617
0.04489583333,0.003491479671
0.04491666667,0.00331210671
0.0449375,0.003102777293
0.04495833333,0.002860703506
0.04497916667,0.002599943895
0.045,0.002418527147
0.04502083333,0.002164898207
0.04504166667,0.001876424765
0.0450625,0.001536233933
0.04508333333,0.001167390961
0.04510416667,0.0008462017868
0.045125,0.0005578709533
0.04514583333,0.0003731299366
0.04516666667,0.0001447606774
0.0451875,-1.708227137e-05
0.04520833333,-0.0001465144742
0.04522916667,-0.0001766969654
0.04525,-0.0002522068971
0.04527083333,-0.0003410206409
0.04529166667,-0.0004744754406
0.0453125,-0.0006259231013
0.04533333333,-0.0008416827186
0.04535416667,-0.001121093635
0.045375,-0.001373079955
0.04539583333,-0.00165814464
0.04541666667,-0.001995061059
0.0454375,-0.002259603469
0.04545833333,-0.00245478563
0.04547916667,-0.002734199632
0.0455,-0.003033752088
0.04552083333,-0.003250599606
0.04554166667,-0.003474693745
0.0455625,-0.003663406475
0.04558333333,-0.003922566772
0.04560416667,-0.004140832461
0.045625,-0.004342085216
0.04564583333,-0.004597812891
0.04566666667,-0.004823633935
0.0456875,-0.00511553837
0.04570833333,-0.00531764701
0.04572916667,-0.005461244844
0.04575,-0.005547321867
0.04577083333,-0.005762082525
0.04579166667,-0.00583207421
0.0458125,-0.005945266224
0.04583333333,-0.006078268401
0.04585416667,-0.006217387971
0.045875,-0.006486045197
0.04589583333,-0.006708157714
0.04591666667,-0.006866336334
0.0459375,-0.007040711585
0.04595833333,-0.007190966047
0.04597916667,-0.007204284426
0.046,-0.007325448096
0.04602083333,-0.007414728403
0.04604166667,-0.007448728196
0.0460625,-0.007539913058
0.04608333333,-0.007666081656
0.04610416667,-0.007855913602
0.046125,-0.008008437231
0.04614583333,-0.008197521791
0.04616666667,-0.008346814662
0.0461875,-0.008501861244
0.04620833333,-0.008538133465
0.04622916667,-0.008607960306
0.04625,-0.008675220422
0.04627083333,-0.008837720379
0.04629166667,-0.0088233836
0.0463125,-0.008782180026
0.04633333333,-0.008865225129
0.04635416667,-0.008904701099
0.046375,-0.009104974568
0.04639583333,-0.009269121103
0.04641666667,-0.009332286194
0.0464375,-0.009501522407
0.04645833333,-0.00970938988
0.04647916667,-0.009844534099
0.0465,-0.01007152535
0.04652083333,-0.01032149605
0.04654166667,-0.01045461465
0.0465625,-0.01058328059
0.04658333333,-0.01063365769
0.04660416667,-0.01062494703
0.046625,-0.0106536895
0.04664583333,-0.01074376423
0.04666666667,-0.01080925483
0.0466875,-0.01093585789
0.04670833333,-0.01105178334
0.04672916667,-0.01114716474
0.04675,-0.01117072627
0.04677083333,-0.01130173542
0.04679166667,-0.01139391959
0.0468125,-0.011467034
0.04683333333,-0.01152219716
0.04685416667,-0.01160457171
0.046875,-0.01167964377
0.04689583333,-0.01184687018
0.04691666667,-0.01200985163
0.0469375,-0.01211225614
0.04695833333,-0.01227790769
0.04697916667,-0.01244900748
0.047,-0.01260491461
0.04702083333,-0.01285152696
0.04704166667,-0.01309947763
0.0470625,-0.01337486971
0.04708333333,-0.01359533612
0.04710416667,-0.01377151068
0.047125,-0.01386067737
0.04714583333,-0.01385909319
0.04716666667,-0.01395444851
0.0471875,-0.01413415652
0.04720833333,-0.01424615365
0.04722916667,-0.01449349988
0.04725,-0.01458811574
0.04727083333,-0.01486355625
0.04729166667,-0.01503304392
0.0473125,-0.01518737897
0.04733333333,-0.01553811133
0.04735416667,-0.01557992958
0.047375,-0.01580678299
0.04739583333,-0.01591557078
0.04741666667,-0.01582560875
0.0474375,-0.01584683359
0.04745833333,-0.01569868438
0.04747916667,-0.01565939002
0.0475,-0.01556189731
0.04752083333,-0.01551336423
0.04754166667,-0.01571843028
0.0475625,-0.01574071869
0.04758333333,-0.01585397124
0.04760416667,-0.01601195894
0.047625,-0.01613809168
0.04764583333,-0.01624248363
0.04766666667,-0.01630979776
0.0476875,-0.01634187996
0.04770833333,-0.01640188694
0.04772916667,-0.01645301282
0.04775,-0.01648136973
0.04777083333,-0.0165511407
0.04779166667,-0.01667275652
0.0478125,-0.01684639789
0.04783333333,-0.01698745042
0.04785416667,-0.01714734547
0.047875,-0.01734037884
0.04789583333,-0.01745294034
0.04791666667,-0.01761119626
0.0479375,-0.01771114022
0.04795833333,-0.01778167859
0.04797916667,-0.01782052591
0.048,-0.01780039258
0.04802083333,-0.01776709035
0.04804166667,-0.01774552092
0.0480625,-0.01779165119
0.04808333333,-0.01790652424
0.04810416667,-0.01802081987
0.048125,-0.0180845093
0.04814583333,-0.01815288141
0.04816666667,-0.01824943163
0.0481875,-0.01827433147
0.04820833333,-0.01838167943
0.04822916667,-0.01838994212
0.04825,-0.01838438585
0.04827083333,-0.01840468682
0.04829166667,-0.01830377989
0.0483125,-0.0182634294
0.04833333333,-0.01815094613
0.04835416667,-0.01813001558
0.048375,-0.01817453839
0.04839583333,-0.01826097816
0.04841666667,-0.01832596399
0.0484375,-0.01842362806
0.04845833333,-0.0185528174
0.04847916667,-0.01866325922
0.0485,-0.01879066043
0.04852083333,-0.01885984279
0.04854166667,-0.01892455667
0.0485625,-0.01907611452
0.04858333333,-0.01926690899
0.04860416667,-0.01947324164
0.048625,-0.01959638111
0.04864583333,-0.01978635229
0.04866666667,-0.0199593585
0.0486875,-0.02010404505
0.04870833333,-0.02027681097
0.04872916667,-0.02042942867
0.04875,-0.02058300562
0.04877083333,-0.02075100504
0.04879166667,-0.02094097435
0.0488125,-0.02106572315
0.04883333333,-0.02115781978
0.04885416667,-0.02130798995
0.048875,-0.0213341713
0.04889583333,-0.02128849924
0.04891666667,-0.02133441716
0.0489375,-0.02141319215
0.04895833333,-0.02158950269
0.04897916667,-0.02179010212
0.049,-0.0220751036
0.04902083333,-0.02216723375
0.04904166667,-0.02222770825
0.0490625,-0.02226036415
0.04908333333,-0.02215630934
0.04910416667,-0.02207600325
0.049125,-0.02199920639
0.04914583333,-0.02198552899
0.04916666667,-0.02205179632
0.0491875,-0.02215017565
0.04920833333,-0.02231852897
0.04922916667,-0.02252936736
0.04925,-0.02264025807
0.04927083333,-0.02275854722
0.04929166667,-0.02279021963
0.0493125,-0.02285103686
0.04933333333,-0.02283845469
0.04935416667,-0.02277286164
0.049375,-0.02271489426
0.04939583333,-0.02265982702
0.04941666667,-0.02265898697
0.0494375,-0.0225627739
0.04945833333,-0.02258006297
0.04947916667,-0.02254650928
0.0495,-0.02262853086
0.04952083333,-0.0225882642
0.04954166667,-0.02269986272
0.0495625,-0.02296941914
0.04958333333,-0.02306246944
0.04960416667,-0.02315420657
0.049625,-0.02319684438
0.04964583333,-0.02331410721
0.04966666667,-0.02334988117
0.0496875,-0.02334693447
0.04970833333,-0.02343793958
0.04972916667,-0.02355394512
0.04975,-0.02377418429
0.04977083333,-0.02394515835
0.04979166667,-0.02405171841
0.0498125,-0.0242953077
0.04983333333,-0.02452197857
0.04985416667,-0.02465057373
0.049875,-0.02478767186
0.04989583333,-0.02474353276
0.04991666667,-0.02471899986
0.0499375,-0.02474011108
0.04995833333,-0.02472600341
0.04997916667,-0.02481032535
0.05,-0.02497057989
0.05002083333,-0.02514695749
0.05004166667,-0.02529324777
0.0500625,-0.02545877732
0.05008333333,-0.02570764162
0.05010416667,-0.02599710971
0.050125,-0.02625109255
0.05014583333,-0.02646744996
0.05016666667,-0.02679015324
0.0501875,-0.02695860527
0.05020833333,-0.02698692307
0.05022916667,-0.02706221119
0.05025,-0.02718482353
0.05027083333,-0.02735649981
0.05029166667,-0.02753198892
0.0503125,-0.02781709284
0.05033333333,-0.02810090967
0.05035416667,-0.0286247395
0.050375,-0.02908750437
0.05039583333,-0.0294045452
0.05041666667,-0.02973910794
0.0504375,-0.029874973
0.05045833333,-0.0299598705
0.05047916667,-0.03002848849
0.0505,-0.03015314974
0.05052083333,-0.03022426181
0.05054166667,-0.03024116158
0.0505625,-0.03035422787
0.05058333333,-0.03063125908
0.05060416667,-0.03086982667
0.050625,-0.03115337901
0.05064583333,-0.03138972074
0.05066666667,-0.03164936975
0.0506875,-0.03190434724
0.05070833333,-0.03204000369
0.05072916667,-0.03220871091
0.05075,-0.03215492144
0.05077083333,-0.03201975301
0.05079166667,-0.03206298873
0.0508125,-0.03197973594
0.05083333333,-0.03188512474
0.05085416667,-0.03191548958
0.050875,-0.03198957816
0.05089583333,-0.0322149992
0.05091666667,-0.03250120208
0.0509375,-0.03275929391
0.05095833333,-0.03299234062
0.05097916667,-0.03312316164
0.051,-0.03317531198
0.05102083333,-0.03314200416
0.05104166667,-0.03314930946
0.0510625,-0.03308939934
0.05108333333,-0.03307816014
0.05110416667,-0.03306685388
0.051125,-0.03315732628
0.05114583333,-0.03335979208
0.05116666667,-0.03355427831
0.0511875,-0.03377405554
0.05120833333,-0.03391063213
0.05122916667,-0.03406861052
0.05125,-0.03411190584
0.05127083333,-0.0340465419
0.05129166667,-0.03390497342
0.0513125,-0.03360666707
0.05133333333,-0.03334176913
0.05135416667,-0.03307113051
0.051375,-0.03284965456
0.05139583333,-0.03261894733
0.05141666667,-0.03255868703
0.0514375,-0.03252065554
0.05145833333,-0.03239215538
0.05147916667,-0.03246420994
0.0515,-0.03217603266
0.05152083333,-0.03207908198
0.05154166667,-0.03194127232
0.0515625,-0.03178733215
0.05158333333,-0.03177009895
0.05160416667,-0.03140650317
0.051625,-0.03111372329
0.05164583333,-0.03087865002
0.05166666667,-0.03061739914
0.0516875,-0.03043079562
0.05170833333,-0.03024883009
0.05172916667,-0.03006855212
0.05175,-0.03000935167
0.05177083333,-0.0300026536
0.05179166667,-0.02993200719
0.0518125,-0.02988831885
0.05183333333,-0.02975819632
0.05185416667,-0.02971897833
0.051875,-0.02951867878
0.05189583333,-0.02926026285
0.05191666667,-0.02897005156
0.0519375,-0.0287248157
0.05195833333,-0.02859486081
0.05197916667,-0.02847755328
0.052,-0.02835431509
0.05202083333,-0.02839650586
0.05204166667,-0.02839645743
0.0520625,-0.02839030698
0.05208333333,-0.02830097824
0.05210416667,-0.02817949094
0.052125,-0.02805607021
0.05214583333,-0.02785546705
0.05216666667,-0.02762811258
0.0521875,-0.02732008882
0.05220833333,-0.02706298418
0.05222916667,-0.02677477151
0.05225,-0.02652269229
0.05227083333,-0.02639279701
0.05229166667,-0.0262501929
0.0523125,-0.0262947455
0.05233333333,-0.02619299479
0.05235416667,-0.02603385411
0.052375,-0.02579802647
0.05239583333,-0.02552243322
0.05241666667,-0.02528204583
0.0524375,-0.0248617325
0.05245833333,-0.02465022914
0.05247916667,-0.02389443852
0.0525,-0.02366843261
0.05252083333,-0.02310378104
0.05254166667,-0.02294252813
0.0525625,-0.02280960605
0.05258333333,-0.02251910977
0.05260416667,-0.02276543714
0.052625,-0.02214211971
0.05264583333,-0.02193011902
0.05266666667,-0.02170024812
0.0526875,-0.02137680724
0.05270833333,-0.02098373324
0.05272916667,-0.02052685618
0.05275,-0.02010110766
0.05277083333,-0.01974545419
0.05279166667,-0.01961632818
0.0528125,-0.01959962957
0.05283333333,-0.019542519
0.05285416667,-0.01956275851
0.052875,-0.01946707815
0.05289583333,-0.01917037927
0.05291666667,-0.01883466728
0.0529375,-0.01842533238
0.05295833333,-0.01787781157
0.05297916667,-0.01734619774
0.053,-0.01686710119
0.05302083333,-0.01634532213
0.05304166667,-0.01583678089
0.0530625,-0.01554205175
0.05308333333,-0.0153211616
0.05310416667,-0.01517483871
0.053125,-0.01490826346
0.05314583333,-0.01478830725
0.05316666667,-0.01469026133
0.0531875,-0.01426477078
0.05320833333,-0.01396957133
0.05322916667,-0.01350244973
0.05325,-0.0129721351
0.05327083333,-0.01246996969
0.05329166667,-0.0119432155
0.0533125,-0.01137903612
0.05333333333,-0.01096786931
0.05335416667,-0.01065067574
0.053375,-0.01025602967
0.05339583333,-0.01009158697
0.05341666667,-0.009850568138
0.0534375,-0.009687837213
0.05345833333,-0.009484960698
0.05347916667,-0.009380852804
0.0535,-0.008943158202
0.05352083333,-0.008511036634
0.05354166667,-0.00801133085
0.0535625,-0.007492850069
0.05358333333,-0.007261798251
0.05360416667,-0.006733052898
0.053625,-0.006472335197
0.05364583333,-0.006278804038
0.05366666667,-0.005746194627
0.0536875,-0.005643931217
0.05370833333,-0.005242477171
0.05372916667,-0.005064343102
0.05375,-0.004941877443
0.05377083333,-0.004633378237
0.05379166667,-0.004383706022
0.0538125,-0.003981193528
0.05383333333,-0.00361228548
0.05385416667,-0.003237819066
0.053875,-0.002992260735
0.05389583333,-0.002862605965
0.05391666667,-0.002775302622
0.0539375,-0.002689500106
0.05395833333,-0.002678059973
0.05397916667,-0.002612079727
0.054,-0.002653049305
0.05402083333,-0.002453918802
0.05404166667,-0.002198275644
0.0540625,-0.001893302193
0.05408333333,-0.00149544212
0.05410416667,-0.001101294067
0.054125,-0.0004848595418
0.05414583333,-0.0001986497955
0.05416666667,7.865059888e-05
0.0541875,0.0003512291005
0.05420833333,0.0005022833357
0.05422916667,0.0006116219447
0.05425,0.0007289810455
0.05427083333,0.0008636095445
0.05429166667,0.001135650673
0.0543125,0.001391342143
0.05433333333,0.001757003833
0.05435416667,0.00216896832
0.054375,0.002600828884
0.05439583333,0.003142037895
0.05441666667,0.00337090739
0.0544375,0.003993223887
0.05445833333,0.004279982299
0.05447916667,0.00401404826
0.0545,0.004426343367
0.05452083333,0.004081034102
0.05454166667,0.00451246649
0.0545625,0.004785771482
0.05458333333,0.004517928232
0.05460416667,0.004999933764
0.054625,0.005095630419
0.05464583333,0.005322159734
0.05466666667,0.005533960182
0.0546875,0.005769112147
0.05470833333,0.005933491979
0.05472916667,0.006114153191
0.05475,0.006122336257
0.05477083333,0.00620870851
0.05479166667,0.006285851356
0.0548125,0.006321873516
0.05483333333,0.006481707562
0.05485416667,0.006680524442
0.054875,0.006999240723
0.05489583333,0.007331284694
0.05491666667,0.007692452054
0.0549375,0.00802018214
0.05495833333,0.008294256404
0.05497916667,0.008654158562
0.055,0.008948390372
0.05502083333,0.009294858202
0.05504166667,0.009564677253
0.0550625,0.009862486273
0.05508333333,0.01006502379
0.05510416667,0.010238152
0.055125,0.01054635271
0.05514583333,0.01076176018
0.05516666667,0.01111226622
0.0551875,0.01150638144
0.05520833333,0.01186996698
0.05522916667,0.0122105768
0.05525,0.01258197799
0.05527083333,0.01284915954
0.05529166667,0.01314486843
0.0553125,0.01343406457
0.05533333333,0.01376932673
0.05535416667,0.01406169031
0.055375,0.01430447865
0.05539583333,0.01464563049
0.05541666667,0.01486616861
0.0554375,0.01529979706
0.05545833333,0.01561324671
0.05547916667,0.01598852873
0.0555,0.01635767333
0.05552083333,0.01665549725
0.05554166667,0.01688424684
0.0555625,0.01689629816
0.05558333333,0.01703304052
0.05560416667,0.01720521599
0.055625,0.01730731688
0.05564583333,0.01736834273
0.05566666667,0.01748030446
0.0556875,0.01775534078
0.05570833333,0.01798508503
0.05572916667,0.01829848066
0.05575,0.01864122413
0.05577083333,0.01902093366
0.05579166667,0.01945692115
0.0558125,0.01985627599
0.05583333333,0.02024000324
0.05585416667,0.02057940885
0.055875,0.02071332932
0.05589583333,0.02086386457
0.05591666667,0.02104880475
0.0559375,0.02124121226
0.05595833333,0.021505123
0.05597916667,0.02170576341
0.056,0.02199359797
0.05602083333,0.02239886299
0.05604166667,0.02272664756
0.0560625,0.02307471447
0.05608333333,0.02339451946
0.05610416667,0.0236405246
0.056125,0.02391055226
0.05614583333,0.02412861586
0.05616666667,0.02422578633
0.0561875,0.02434524707
0.05620833333,0.02451025508
0.05622916667,0.0245916266
0.05625,0.0246670302
0.05627083333,0.02476426587
0.05629166667,0.02492887154
0.0563125,0.02515660785
0.05633333333,0.02537194826
0.05635416667,0.02559442632
0.056375,0.02576687932
0.05639583333,0.02592677623
0.05641666667,0.02605662867
0.0564375,0.02615087479
0.05645833333,0.02620789595
0.05647916667,0.02626474015
0.0565,0.02635251544
0.05652083333,0.02644471824
0.05654166667,0.02644814737
0.0565625,0.02665279247
0.05658333333,0.0269039534
0.05660416667,0.02714566514
0.056625,0.02742213756
0.05664583333,0.02770950459
0.05666666667,0.02801532112
0.0566875,0.02827460133
0.05670833333,0.02842453308
0.05672916667,0.02850809321
0.05675,0.02864673175
0.05677083333,0.02870003134
0.05679166667,0.02878415957
0.0568125,0.02894006483
0.05683333333,0.02910953015
0.05685416667,0.02935624123
0.056875,0.02957337536
0.05689583333,0.02978061698
0.05691666667,0.03005620837
0.0569375,0.03027961031
0.05695833333,0.03056602366
0.05697916667,0.0308136493
0.057,0.0309851449
0.05702083333,0.03122457489
0.05704166667,0.031491559
0.0570625,0.03173335269
0.05708333333,0.03194340691
0.05710416667,0.03209074587
0.057125,0.03212792799
0.05714583333,0.03223709017
0.05716666667,0.03242465854
0.0571875,0.0325819701
0.05720833333,0.03264768422
0.05722916667,0.03267302364
0.05725,0.03271606565
0.05727083333,0.03272595629
0.05729166667,0.03268962726
0.0573125,0.03269675002
0.05733333333,0.03270770237
0.05735416667,0.03272177652
0.057375,0.03284886107
0.05739583333,0.03295347467
0.05741666667,0.03313726932
0.0574375,0.03322970495
0.05745833333,0.03349924088
0.05747916667,0.0335761942
0.0575,0.03343684599
0.05752083333,0.03346514329
0.05754166667,0.03350943699
0.0575625,0.03348886967
0.05758333333,0.03354866803
0.05760416667,0.03355975449
0.057625,0.03354731575
0.05764583333,0.03355040029
0.05766666667,0.03370977566
0.0576875,0.03391522914
0.05770833333,0.03408683091
0.05772916667,0.03427745774
0.05775,0.03439290076
0.05777083333,0.03460748121
0.05779166667,0.03469591588
0.0578125,0.03479451686
0.05783333333,0.03491403908
0.05785416667,0.03495422006
0.057875,0.03511291742
0.05789583333,0.03516414016
0.05791666667,0.03523961455
0.0579375,0.0353763029
0.05795833333,0.03542352095
0.05797916667,0.03556871787
0.058,0.03571875021
0.05802083333,0.03588141128
0.05804166667,0.03609172627
0.0580625,0.03628279641
0.05808333333,0.0364863053
0.05810416667,0.0366370827
0.058125,0.03672141582
0.05814583333,0.03681306541
0.05816666667,0.03680275008
0.0581875,0.03694603592
0.05820833333,0.03712222353
0.05822916667,0.03721197322
0.05825,0.03741926327
0.05827083333,0.03754747659
0.05829166667,0.03769055754
0.0583125,0.03777035326
0.05833333333,0.03773867711
0.05835416667,0.03769268468
0.058375,0.0375912562
0.05839583333,0.0375980325
0.05841666667,0.03751133755
0.0584375,0.0374754183
0.05845833333,0.03751513734
0.05847916667,0.03745765612
0.0585,0.03762669489
0.05852083333,0.03770107031
0.05854166667,0.03760880232
0.0585625,0.03765734285
0.05858333333,0.03760060668
0.05860416667,0.0376627408
0.058625,0.03769885376
0.05864583333,0.03770149499
0.05866666667,0.03782128543
0.0586875,0.03786336631
0.05870833333,0.03788382933
0.05872916667,0.03782922775
0.05875,0.03774003685
0.05877083333,0.03772664815
0.05879166667,0.03768268973
0.0588125,0.03772629797
0.05883333333,0.03782900423
0.05885416667,0.03793404251
0.058875,0.03797207028
0.05889583333,0.03791221604
0.05891666667,0.03790180385
0.0589375,0.03783513978
0.05895833333,0.03777747601
0.05897916667,0.03780960664
0.059,0.03788897768
0.05902083333,0.03793345392
0.05904166667,0.03805517033
0.0590625,0.03813073412
0.05908333333,0.03824433684
0.05910416667,0.03839089349
0.059125,0.03856537864
0.05914583333,0.03875118867
0.05916666667,0.03882106766
0.0591875,0.03883571178
0.05920833333,0.03877053782
0.05922916667,0.03863748536
0.05925,0.0385479182
0.05927083333,0.03837998211
0.05929166667,0.0383567512
0.0593125,0.03844361007
0.05933333333,0.03863727674
0.05935416667,0.03890143335
0.059375,0.03913377225
0.05939583333,0.03933577612
0.05941666667,0.03950370848
0.0594375,0.03953838348
0.05945833333,0.03953182697
0.05947916667,0.03941884264
0.0595,0.03946862742
0.05952083333,0.0395190753
0.05954166667,0.03946556523
0.0595625,0.03959449008
0.05958333333,0.03969314322
0.05960416667,0.03988966346
0.059625,0.04015474394
0.05964583333,0.0402828455
0.05966666667,0.04057907313
0.0596875,0.04088498279
0.05970833333,0.04108002782
0.05972916667,0.04119232297
0.05975,0.04113279656
0.05977083333,0.04108907655
0.05979166667,0.04109866545
0.0598125,0.04106914252
0.05983333333,0.04114538059
0.05985416667,0.04128190875
0.059875,0.04133333638
0.05989583333,0.04155961424
0.05991666667,0.0417435132
0.0599375,0.04183894023
0.05995833333,0.04201097414
0.05997916667,0.04206521809
0.06,0.04217210039
0.06002083333,0.04230531678
0.06004166667,0.04230789468
0.0600625,0.04224163666
0.06008333333,0.04226961359
0.06010416667,0.0422630012
0.060125,0.04227394983
0.06014583333,0.04242806137
0.06016666667,0.04257645458
0.0601875,0.04273720831
0.06020833333,0.0429511033
0.06022916667,0.0431952402
0.06025,0.04339813814
0.06027083333,0.04358809814
0.06029166667,0.04370502383
0.0603125,0.04369858652
0.06033333333,0.04367897287
0.06035416667,0.04358650371
0.060375,0.04378082603
0.06039583333,0.04384119064
0.06041666667,0.04401155561
0.0604375,0.04422943667
0.06045833333,0.04436887801
0.06047916667,0.04476662725
0.0605,0.04506960884
0.06052083333,0.04527010024
0.06054166667,0.04550793394
0.0605625,0.04556542262
0.06058333333,0.04573674127
0.06060416667,0.04576966912
0.060625,0.04568882287
0.06064583333,0.04580434039
0.06066666667,0.04568910971
0.0606875,0.04562712833
0.06070833333,0.04575483128
0.06072916667,0.04576866329
0.06075,0.04578382522
0.06077083333,0.04585941508
0.06079166667,0.04621221498
0.0608125,0.04649797454
0.06083333333,0.04667820409
0.06085416667,0.04695478082
0.060875,0.04709949717
0.06089583333,0.04705389962
0.06091666667,0.04696832597
0.0609375,0.04686626047
0.06095833333,0.04676438123
0.06097916667,0.04674883187
0.061,0.046775572
0.06102083333,0.04689320549
0.06104166667,0.04707517102
0.0610625,0.04722120613
0.06108333333,0.04739203677
0.06110416667,0.04747350886
0.061125,0.04757856205
0.06114583333,0.04751266167
0.06116666667,0.04746387526
0.0611875,0.0474278219
0.06120833333,0.04746966437
0.06122916667,0.04756928235
0.06125,0.0476001054
0.06127083333,0.04772844166
0.06129166667,0.04784774035
0.0613125,0.04812761769
0.06133333333,0.04826705158
0.06135416667,0.0484203063
0.061375,0.04859912395
0.06139583333,0.04848674685
0.06141666667,0.04836585373
0.0614375,0.04813056439
0.06145833333,0.04792150855
0.06147916667,0.04771400988
0.0615,0.04738180339
0.06152083333,0.04719298705
0.06154166667,0.04696491361
0.0615625,0.04685440287
0.06158333333,0.04677229747
0.06160416667,0.04667790979
0.061625,0.04667081684
0.06164583333,0.04663752392
0.06166666667,0.04647868872
0.0616875,0.04628460854
0.06170833333,0.04602663964
0.06172916667,0.04575129971
0.06175,0.04560014606
0.06177083333,0.0452962853
0.06179166667,0.04512398317
0.0618125,0.04498231411
0.06183333333,0.04485180974
0.06185416667,0.04479420185
0.061875,0.04483322054
0.06189583333,0.04490884021
0.06191666667,0.04499525949
0.0619375,0.04493808746
0.06195833333,0.04479990155
0.06197916667,0.04466675594
0.062,0.04436885938
0.06202083333,0.04405767098
0.06204166667,0.04373358935
0.0620625,0.04335527867
0.06208333333,0.04316228628
0.06210416667,0.04293935373
0.062125,0.0427845493
0.06214583333,0.04267162085
0.06216666667,0.04249313846
0.0621875,0.04241320118
0.06220833333,0.04230760783
0.06222916667,0.04206284136
0.06225,0.04168014228
0.06227083333,0.04122306034
0.06229166667,0.04076653719
0.0623125,0.04020537809
0.06233333333,0.03966159374
0.06235416667,0.03926151618
0.062375,0.03893192858
0.06239583333,0.03875303641
0.06241666667,0.03869254887
0.0624375,0.03863080591
0.06245833333,0.03866738081
0.06247916667,0.03865813836
0.0625,0.03854660317
0.06252083333,0.03840775415
0.06254166667,0.03815979138
0.0625625,0.03777477518
0.06258333333,0.03735535219
0.06260416667,0.03696163371
0.062625,0.03651916981
0.06264583333,0.03615937382
0.06266666667,0.03582618013
0.0626875,0.03567324579
0.06270833333,0.0353281796
0.06272916667,0.0350326933
0.06275,0.03514544666
0.06277083333,0.03480938822
0.06279166667,0.0347641781
0.0628125,0.03456159309
0.06283333333,0.03429695219
0.06285416667,0.03412466496
0.062875,0.03344446048
0.06289583333,0.03335855529
0.06291666667,0.03319298103
0.0629375,0.03301416337
0.06295833333,0.03294571117
0.06297916667,0.03284659982
0.063,0.03291381523
0.06302083333,0.03293692321
0.06304166667,0.03291773051
0.0630625,0.03280571103
0.06308333333,0.03239573911
0.06310416667,0.03207150474
0.063125,0.03159946576
0.06314583333,0.03114233166
0.06316666667,0.03072972596
0.0631875,0.0302432403
0.06320833333,0.02993302979
0.06322916667,0.02962275408
0.06325,0.02943772264
0.06327083333,0.02927871794
0.06329166667,0.02909065783
0.0633125,0.02895133011
0.06333333333,0.02878878079
0.06335416667,0.02861900441
0.063375,0.02822762169
0.06339583333,0.02783479728
0.06341666667,0.02734354325
0.0634375,0.02684890479
0.06345833333,0.02639454231
0.06347916667,0.02600163035
0.0635,0.02579793148
0.06352083333,0.02551170066
0.06354166667,0.02540772781
0.0635625,0.02518515661
0.06358333333,0.02492632903
0.06360416667,0.02507812157
0.063625,0.02471789345
0.06364583333,0.02429444715
0.06366666667,0.02409147844
0.0636875,0.02371860296
0.06370833333,0.02330655605
0.06372916667,0.0230444558
0.06375,0.02244649641
0.06377083333,0.02207272314
0.06379166667,0.02210107446
0.0638125,0.02182545699
0.06383333333,0.02178491838
0.06385416667,0.02170696668
0.063875,0.02150607295
0.06389583333,0.02128623053
0.06391666667,0.02083171345
0.0639375,0.02044883743
0.06395833333,0.01993701234
0.06397916667,0.01935023069
0.064,0.01885119639
0.06402083333,0.01839046925
0.06404166667,0.01802789234
0.0640625,0.01775421202
0.06408333333,0.0175573267
0.06410416667,0.0174119845
0.064125,0.01728320122
0.06414583333,0.01721051708
0.06416666667,0.01707784086
0.0641875,0.01691037044
0.06420833333,0.01662399061
0.06422916667,0.01628975943
0.06425,0.01595007442
0.06427083333,0.01554263569
0.06429166667,0.01519529987
0.0643125,0.01493087225
0.06433333333,0.01473262534
0.06435416667,0.01449630503
0.064375,0.01441871654
0.06439583333,0.01439246535
0.06441666667,0.01433597878
0.0644375,0.01422227453
0.06445833333,0.0140278358
0.06447916667,0.01385165378
0.0645,0.0134926755
0.06452083333,0.01303312276
0.06454166667,0.01259628031
0.0645625,0.01220873278
0.06458333333,0.01172764506
0.06460416667,0.01133154705
0.064625,0.01118014287
0.06464583333,0.01095646154
0.06466666667,0.01100334618
0.0646875,0.01109598018
0.06470833333,0.01079278905
0.06472916667,0.01077779755
0.06475,0.01072168257
0.06477083333,0.01016840432
0.06479166667,0.009744968265
0.0648125,0.009300918318
0.06483333333,0.008781597018
0.06485416667,0.00844203867
0.064875,0.008124324493
0.06489583333,0.007922267541
0.06491666667,0.007687238045
0.0649375,0.007478669751
0.06495833333,0.007391639054
0.06497916667,0.007197647821
0.065,0.007007753477
0.06502083333,0.006821040995
0.06504166667,0.006568441167
0.0650625,0.006394301541
0.06508333333,0.006207402796
0.06510416667,0.005947336555
0.065125,0.005711811595
0.06514583333,0.005426589865
0.06516666667,0.005166793242
0.0651875,0.00496855611
0.06520833333,0.004798079841
0.06522916667,0.004676848184
0.06525,0.004492922686
0.06527083333,0.004306493327
0.06529166667,0.004061014857
0.0653125,0.003767983289
0.06533333333,0.003515247721
0.06535416667,0.003144221613
0.065375,0.002718542702
0.06539583333,0.002295519458
0.06541666667,0.001918324968
0.0654375,0.00160003535
0.06545833333,0.001264661551
0.06547916667,0.0009508401854
0.0655,0.0006598315667
0.06552083333,0.0003755391517
0.06554166667,0.0001428235846
0.0655625,-6.995585863e-05
0.06558333333,-0.0003179289924
0.06560416667,-0.0005796790938
0.065625,-0.0009517197032
0.06564583333,-0.001327651902
0.06566666667,-0.001723036054
0.0656875,-0.002159091644
0.06570833333,-0.002521530259
0.06572916667,-0.002818668028
0.06575,-0.0030773459
0.06577083333,-0.003342042444
0.06579166667,-0.003551563015
0.0658125,-0.003734089667
0.06583333333,-0.003941224422
0.06585416667,-0.004289079458
0.065875,-0.004516840912
0.06589583333,-0.004696352407
0.06591666667,-0.004939015955
0.0659375,-0.005105640274
0.06595833333,-0.005320068914
0.06597916667,-0.005500842817
0.066,-0.005681074224
0.06602083333,-0.005789579824
0.06604166667,-0.005911976099
0.0660625,-0.006036630366
0.06608333333,-0.006086794659
0.06610416667,-0.006282867864
0.066125,-0.006489852909
0.06614583333,-0.006680770312
0.06616666667,-0.006896499079
0.0661875,-0.007134772837
0.06620833333,-0.0073393411
0.06622916667,-0.007496850099
0.06625,-0.007784051821
0.06627083333,-0.007948379964
0.06629166667,-0.008120244369
0.0663125,-0.008219445124
0.06633333333,-0.008254433982
0.06635416667,-0.008402376436
0.066375,-0.008481332101
0.06639583333,-0.008638860658
0.06641666667,-0.008748112246
0.0664375,-0.008813527413
0.06645833333,-0.008932637051
0.06647916667,-0.009092114866
0.0665,-0.009329005145
0.06652083333,-0.00952461455
0.06654166667,-0.009719481692
0.0665625,-0.009931022301
0.06658333333,-0.0101235304
0.06660416667,-0.01027256344
0.066625,-0.01045321766
0.06664583333,-0.01066837925
0.06666666667,-0.01086977124
0.0666875,-0.0111039672
0.06670833333,-0.01130101644
0.06672916667,-0.01145451143
0.06675,-0.01169463806
0.06677083333,-0.01180722658
0.06679166667,-0.01203935314
0.0668125,-0.01236965228
0.06683333333,-0.01252208278
0.06685416667,-0.01266437117
0.066875,-0.01272894535
0.06689583333,-0.01273505576
0.06691666667,-0.01282871049
0.0669375,-0.0129590109
0.06695833333,-0.01315086614
0.06697916667,-0.01335706562
0.067,-0.01359095704
0.06702083333,-0.01385782193
0.06704166667,-0.01404920127
0.0670625,-0.01420634799
0.06708333333,-0.01428969484
0.06710416667,-0.01440441981
0.067125,-0.01454273239
0.06714583333,-0.01464940701
0.06716666667,-0.01467075199
0.0671875,-0.014710485
0.06720833333,-0.01481575891
0.06722916667,-0.01490763482
0.06725,-0.01509835105
0.06727083333,-0.01523005683
0.06729166667,-0.01538998634
0.0673125,-0.01557330135
0.06733333333,-0.01571586542
0.06735416667,-0.01594967581
0.067375,-0.01613299549
0.06739583333,-0.01632831432
0.06741666667,-0.01652091369
0.0674375,-0.01667688601
0.06745833333,-0.01680585556
0.06747916667,-0.01690283976
0.0675,-0.01702322252
0.06752083333,-0.01705484837
0.06754166667,-0.01714138128
0.0675625,-0.01729284599
0.06758333333,-0.01743387617
0.06760416667,-0.01763095148
0.067625,-0.01772456989
0.06764583333,-0.01781204157
0.06766666667,-0.01787229255
0.0676875,-0.01787260361
0.06770833333,-0.01784611307
0.06772916667,-0.01776440069
0.06775,-0.01785207167
0.06777083333,-0.01786414534
0.06779166667,-0.01785356924
0.0678125,-0.01790616103
0.06783333333,-0.01796274446
0.06785416667,-0.0180628933
0.067875,-0.01809873804
0.06789583333,-0.0181499701
0.06791666667,-0.01816666313
0.0679375,-0.01816024631
0.06795833333,-0.01820311695
0.06797916667,-0.01818498969
0.068,-0.01815802045
0.06802083333,-0.01814747602
0.06804166667,-0.01808442548
0.0680625,-0.01806120016
0.06808333333,-0.01810140908
0.06810416667,-0.01815943234
0.068125,-0.0182473287
0.06814583333,-0.01829610392
0.06816666667,-0.01838768646
0.0681875,-0.01853686012
0.06820833333,-0.01873420738
0.06822916667,-0.0187950246
0.06825,-0.01879960671
0.06827083333,-0.01882359572
0.06829166667,-0.01881869882
0.0683125,-0.01883193664
0.06833333333,-0.01883467101
0.06835416667,-0.0189350564
0.068375,-0.01909392327
0.06839583333,-0.01917889342
0.06841666667,-0.01934202574
0.0684375,-0.01949134469
0.06845833333,-0.01969522424
0.06847916667,-0.01991397329
0.0685,-0.01999156363
0.06852083333,-0.01998159476
0.06854166667,-0.01997885667
0.0685625,-0.01996161044
0.06858333333,-0.01999338716
0.06860416667,-0.02011030354
0.068625,-0.02018270269
0.06864583333,-0.0203259252
0.06866666667,-0.02042122558
0.0686875,-0.02052760869
0.06870833333,-0.02071303129
0.06872916667,-0.02080006152
0.06875,-0.02091251314
0.06877083333,-0.02087741904
0.06879166667,-0.02083388902
0.0688125,-0.02082661912
0.06883333333,-0.02066691592
0.06885416667,-0.02061443403
0.068875,-0.02049154975
0.06889583333,-0.02044823207
0.06891666667,-0.02046953142
0.0689375,-0.02052295581
0.06895833333,-0.02065479942
0.06897916667,-0.02078539878
0.069,-0.02093317732
0.06902083333,-0.02104598843
0.06904166667,-0.0211036671
0.0690625,-0.02108521387
0.06908333333,-0.02106964774
0.06910416667,-0.02105285786
0.069125,-0.02100970969
0.06914583333,-0.02103801258
0.06916666667,-0.0210856013
0.0691875,-0.02118547074
0.06920833333,-0.02134876326
0.06922916667,-0.02150478959
0.06925,-0.02166890725
0.06927083333,-0.02179249749
0.06929166667,-0.02189826593
0.0693125,-0.02206927165
0.06933333333,-0.02216366306
0.06935416667,-0.02225652896
0.069375,-0.0223499909
0.06939583333,-0.02240403928
0.06941666667,-0.02242837846
0.0694375,-0.02237439342
0.06945833333,-0.02245833911
0.06947916667,-0.02259989269
0.0695,-0.02273392864
0.06952083333,-0.02292537503
0.06954166667,-0.02314247191
0.0695625,-0.02330731973
0.06958333333,-0.02345632389
0.06960416667,-0.02363690734
0.069625,-0.02371511236
0.06964583333,-0.02389598079
0.06966666667,-0.02391415276
0.0696875,-0.02381857485
0.06970833333,-0.02392042242
0.06972916667,-0.02389115468
0.06975,-0.02412542328
0.06977083333,-0.02438719571
0.06979166667,-0.02464515716
0.0698125,-0.02503712475
0.06983333333,-0.02522444353
0.06985416667,-0.02552914061
0.069875,-0.02571548522
0.06989583333,-0.02581041493
0.06991666667,-0.02596722357
0.0699375,-0.02610332891
0.06995833333,-0.02629860863
0.06997916667,-0.02646933496
0.07,-0.02674133889
0.07002083333,-0.02691724524
0.07004166667,-0.02713761665
0.0700625,-0.0274672471
0.07008333333,-0.02784442157
0.07010416667,-0.02819212712
0.070125,-0.02848525159
0.07014583333,-0.02881753631
0.07016666667,-0.02906485647
0.0701875,-0.02927256189
0.07020833333,-0.02939902432
0.07022916667,-0.02956148796
0.07025,-0.02976810746
0.07027083333,-0.0299014803
0.07029166667,-0.03016598523
0.0703125,-0.03038286418
0.07033333333,-0.03068125434
0.07035416667,-0.03105585463
0.070375,-0.03137216344
0.07039583333,-0.03177468479
0.07041666667,-0.03201879188
0.0704375,-0.03221494704
0.07045833333,-0.0323304832
0.07047916667,-0.03237367049
0.0705,-0.03245155886
0.07052083333,-0.03246917948
0.07054166667,-0.03253750876
0.0705625,-0.03257140145
0.07058333333,-0.0327234827
0.07060416667,-0.03285309672
0.070625,-0.03298700973
0.07064583333,-0.03326323256
0.07066666667,-0.03344338015
0.0706875,-0.03367896006
0.07070833333,-0.03372757882
0.07072916667,-0.03371386975
0.07075,-0.03370495513
0.07077083333,-0.03363867477
0.07079166667,-0.03371118754
0.0708125,-0.03371775523
0.07083333333,-0.03381628171
0.07085416667,-0.03391874582
0.070875,-0.03398525342
0.07089583333,-0.0341787152
0.07091666667,-0.03426911682
0.0709375,-0.0345018059
0.07095833333,-0.03471216187
0.07097916667,-0.03488459811
0.071,-0.03504766151
0.07102083333,-0.03515452519
0.07104166667,-0.03520448506
0.0710625,-0.03522774205
0.07108333333,-0.03530450538
0.07110416667,-0.03537609056
0.071125,-0.03556168452
0.07114583333,-0.03576784208
0.07116666667,-0.03594366834
0.0711875,-0.03614131361
0.07120833333,-0.03626187518
0.07122916667,-0.0363795124
0.07125,-0.03640789911
0.07127083333,-0.03639801964
0.07129166667,-0.03637643158
0.0713125,-0.03627537936
0.07133333333,-0.03610836342
0.07135416667,-0.03597500548
0.071375,-0.03584730625
0.07139583333,-0.03573814407
0.07141666667,-0.03566017747
0.0714375,-0.03562280908
0.07145833333,-0.03559200838
0.07147916667,-0.03552839532
0.0715,-0.03554886207
0.07152083333,-0.03551481664
0.07154166667,-0.03551032767
0.0715625,-0.03554793075
0.07158333333,-0.03550472111
0.07160416667,-0.03545838594
0.071625,-0.03535760194
0.07164583333,-0.03518583253
0.07166666667,-0.03505262733
0.0716875,-0.03495645523
0.07170833333,-0.03495279327
0.07172916667,-0.03503353521
0.07175,-0.03511790931
0.07177083333,-0.03524851799
0.07179166667,-0.03525276855
0.0718125,-0.03517082334
0.07183333333,-0.03507543355
0.07185416667,-0.03488672152
0.071875,-0.03472773731
0.07189583333,-0.03455078602
0.07191666667,-0.03434298933
0.0719375,-0.03413521871
0.07195833333,-0.03392755985
0.07197916667,-0.03384781256
0.072,-0.0337883085
0.07202083333,-0.03379159421
0.07204166667,-0.03382872045
0.0720625,-0.03384847566
0.07208333333,-0.03383813426
0.07210416667,-0.03373737261
0.072125,-0.03356803954
0.07214583333,-0.03337654471
0.07216666667,-0.03315299749
0.0721875,-0.03289926797
0.07220833333,-0.03265262395
0.07222916667,-0.03244722262
0.07225,-0.03226971626
0.07227083333,-0.03211591765
0.07229166667,-0.03191544116
0.0723125,-0.03169825673
0.07233333333,-0.031496685
0.07235416667,-0.03126108646
0.072375,-0.03098124079
0.07239583333,-0.0306435395
0.07241666667,-0.03028022684
0.0724375,-0.02985345013
0.07245833333,-0.02932173014
0.07247916667,-0.02875041589
0.0725,-0.02823390812
0.07252083333,-0.02776654251
0.07254166667,-0.02738573216
0.0725625,-0.02705952153
0.07258333333,-0.02677673846
0.07260416667,-0.02655870095
0.072625,-0.02616866864
0.07264583333,-0.02577488497
0.07266666667,-0.02572395094
0.0726875,-0.02534716763
0.07270833333,-0.02460220642
0.07272916667,-0.02419244125
0.07275,-0.02362111211
0.07277083333,-0.02311597019
0.07279166667,-0.02289077453
0.0728125,-0.02242620848
0.07283333333,-0.02216340043
0.07285416667,-0.02205760218
0.072875,-0.02192557044
0.07289583333,-0.02177940682
0.07291666667,-0.02157192305
0.0729375,-0.02135520987
0.07295833333,-0.02106065303
0.07297916667,-0.02062451467
0.073,-0.02017492987
0.07302083333,-0.01972008497
0.07304166667,-0.01927725598
0.0730625,-0.01893389411
0.07308333333,-0.01860259287
0.07310416667,-0.01835425943
0.073125,-0.01816690713
0.07314583333,-0.01797759905
0.07316666667,-0.0177998133
0.0731875,-0.01761990599
0.07320833333,-0.01740667969
0.07322916667,-0.01710246876
0.07325,-0.01678819768
0.07327083333,-0.01641893759
0.07329166667,-0.01600145176
0.0733125,-0.01558638178
0.07333333333,-0.01517748553
0.07335416667,-0.01486121956
0.073375,-0.01460292097
0.07339583333,-0.01436260249
0.07341666667,-0.01418624353
0.0734375,-0.01407171227
0.07345833333,-0.01386897918
0.07347916667,-0.01355731674
0.0735,-0.01316414494
0.07352083333,-0.01262995042
0.07354166667,-0.01217496302
0.0735625,-0.01169490162
0.07358333333,-0.01129489578
0.07360416667,-0.01090162247
0.073625,-0.01053067017
0.07364583333,-0.01033499185
0.07366666667,-0.009991490282
0.0736875,-0.00995413959
0.07370833333,-0.009963943623
0.07372916667,-0.00959514454
0.07375,-0.009301903658
0.07377083333,-0.00880396273
0.07379166667,-0.008339568973
0.0738125,-0.007686865516
0.07383333333,-0.007149739657
0.07385416667,-0.006822400261
0.073875,-0.006274088286
0.07389583333,-0.005821519997
0.07391666667,-0.005406921264
0.0739375,-0.005168989301
0.07395833333,-0.00494919857
0.07397916667,-0.004687760025
0.074,-0.004574622028
0.07402083333,-0.004300509114
0.07404166667,-0.003983621951
0.0740625,-0.003639000002
0.07408333333,-0.003244769759
0.07410416667,-0.00284447032
0.074125,-0.00241025025
0.07414583333,-0.002058464102
0.07416666667,-0.001767710201
0.0741875,-0.001618664013
0.07420833333,-0.001507795881
0.07422916667,-0.001397968503
0.07425,-0.001327619539
0.07427083333,-0.001254240982
0.07429166667,-0.001126768766
0.0743125,-0.0009297715733
0.07433333333,-0.0007511023432
0.07435416667,-0.0004750695662
0.074375,-0.0001363801712
0.07439583333,0.0001814570569
0.07441666667,0.0004633333883
0.0744375,0.00068410323
0.07445833333,0.0008504512953
0.07447916667,0.0008946081507
0.0745,0.0009059518343
0.07452083333,0.0008954462246
0.07454166667,0.0008769580163
0.0745625,0.001017951174
0.07458333333,0.001258583972
0.07460416667,0.001604861231
0.074625,0.001966804266
0.07464583333,0.002381440019
0.07466666667,0.002812517807
0.0746875,0.003218091559
0.07470833333,0.003685805481
0.07472916667,0.004039964639
0.07475,0.004384187516
0.07477083333,0.0046847458
0.07479166667,0.004782118369
0.0748125,0.004886650015
0.07483333333,0.0050458638
0.07485416667,0.005230229348
0.074875,0.005439625587
0.07489583333,0.005608783104
0.07491666667,0.005844434258
0.0749375,0.006054348312
0.07495833333,0.006299188361
0.07497916667,0.00653626211
0.075,0.006745263003
0.07502083333,0.006930642296
0.07504166667,0.007061631419
0.0750625,0.007227467373
0.07508333333,0.007382695097
0.07510416667,0.007554437034
0.075125,0.007699294481
0.07514583333,0.00783273764
0.07516666667,0.00804903172
0.0751875,0.008266722783
0.07520833333,0.008556264453
0.07522916667,0.008871913888
0.07525,0.009169532917
0.07527083333,0.009438228793
0.07529166667,0.009618601762
0.0753125,0.009769762866
0.07533333333,0.009900355712
0.07535416667,0.009971327148
0.075375,0.01007660013
0.07539583333,0.01019554678
0.07541666667,0.01028197259
0.0754375,0.01037647482
0.07545833333,0.01051529963
0.07547916667,0.01074892189
0.0755,0.01097306889
0.07552083333,0.01117185969
0.07554166667,0.01132300124
0.0755625,0.01143852621
0.07558333333,0.01156628504
0.07560416667,0.01161043532
0.075625,0.01169134583
0.07564583333,0.01176026091
0.07566666667,0.01185012981
0.0756875,0.01202283613
0.07570833333,0.01217915397
0.07572916667,0.01234964374
0.07575,0.01256882027
0.07577083333,0.01289050002
0.07579166667,0.01319492701
0.0758125,0.01338420715
0.07583333333,0.01359071862
0.07585416667,0.01373547688
0.075875,0.01383265853
0.07589583333,0.01396018639
0.07591666667,0.01401887462
0.0759375,0.01413325779
0.07595833333,0.01424775738
0.07597916667,0.01431924012
0.076,0.0144316107
0.07602083333,0.01456821617
0.07604166667,0.01478790399
0.0760625,0.01500053238
0.07608333333,0.01518548373
0.07610416667,0.01533953473
0.076125,0.015382763
0.07614583333,0.01536875963
0.07616666667,0.015345091
0.0761875,0.01532246359
0.07620833333,0.01535596978
0.07622916667,0.01538742427
0.07625,0.01537428237
0.07627083333,0.01541200839
0.07629166667,0.01547989715
0.0763125,0.01558381598
0.07633333333,0.01574716531
0.07635416667,0.01595286839
0.076375,0.01619365998
0.07639583333,0.016444562
0.07641666667,0.01672348753
0.0764375,0.0168971438
0.07645833333,0.01700709574
0.07647916667,0.01711345837
0.0765,0.01714546606
0.07652083333,0.01717986539
0.07654166667,0.01722201519
0.0765625,0.01728864014
0.07658333333,0.01741016842
0.07660416667,0.01751760393
0.076625,0.01769898832
0.07664583333,0.01786753349
0.07666666667,0.01794850454
0.0766875,0.01807565242
0.07670833333,0.01812699437
0.07672916667,0.01815246791
0.07675,0.01815557294
0.07677083333,0.01804654859
0.07679166667,0.01806513593
0.0768125,0.01806974225
0.07683333333,0.01809255779
0.07685416667,0.01817278564
0.076875,0.01816673018
0.07689583333,0.01828465424
0.07691666667,0.01839896664
0.0769375,0.0185040962
0.07695833333,0.01868190244
0.07697916667,0.01873737574
0.077,0.01878053695
0.07702083333,0.01876781322
0.07704166667,0.01872945204
0.0770625,0.01869869046
0.07708333333,0.01865988597
0.07710416667,0.01866353117
0.077125,0.01861470751
0.07714583333,0.01863064803
0.07716666667,0.01868673414
0.0771875,0.01879101619
0.07720833333,0.0189026352
0.07722916667,0.01897986606
0.07725,0.01907732338
0.07727083333,0.01908825897
0.07729166667,0.0191011671
0.0773125,0.01906480081
0.07733333333,0.01901020482
0.07735416667,0.0190124698
0.077375,0.01896060072
0.07739583333,0.01895952038
0.07741666667,0.01895908266
0.0774375,0.01899169758
0.07745833333,0.01904228516
0.07747916667,0.01907231659
0.0775,0.01914448105
0.07752083333,0.01914355531
0.07754166667,0.01914676465
0.0775625,0.01918738894
0.07758333333,0.01925179176
0.07760416667,0.0193721503
0.077625,0.01937301643
0.07764583333,0.01941560768
0.07766666667,0.01947333477
0.0776875,0.01944312826
0.07770833333,0.01948469318
0.07772916667,0.01950197294
0.07775,0.0196616035
0.07777083333,0.01982870698
0.07779166667,0.01991278119
0.0778125,0.02011077479
0.07783333333,0.02010528557
0.07785416667,0.02008479275
0.077875,0.02013103478
0.07789583333,0.02011179365
0.07791666667,0.02016089112
0.0779375,0.02016224898
0.07795833333,0.02018972859
0.07797916667,0.02023580857
0.078,0.02025912888
0.07802083333,0.02033467777
0.07804166667,0.02039304189
0.0780625,0.02049051039
0.07808333333,0.0206111744
0.07810416667,0.02063326538
0.078125,0.02064286172
0.07814583333,0.0206507165
0.07816666667,0.02061143517
0.0781875,0.02058213763
0.07820833333,0.02058754303
0.07822916667,0.02062520012
0.07825,0.02071782947
0.07827083333,0.02080849186
0.07829166667,0.02092007734
0.0783125,0.02106649615
0.07833333333,0.02124213055
0.07835416667,0.02145842277
0.078375,0.02162144519
0.07839583333,0.02173337713
0.07841666667,0.02185794525
0.0784375,0.02191986144
0.07845833333,0.02197411284
0.07847916667,0.02204625122
0.0785,0.02206037752
0.07852083333,0.02203899063
0.07854166667,0.02198158391
0.0785625,0.02190439403
0.07858333333,0.0218709372
0.07860416667,0.02189299092
0.078625,0.02195706777
0.07864583333,0.02200408652
0.07866666667,0.02203642949
0.0786875,0.02204426192
0.07870833333,0.02202791348
0.07872916667,0.02201719768
0.07875,0.0220657438
0.07877083333,0.02209834382
0.07879166667,0.02210854366
0.0788125,0.02217697166
0.07883333333,0.02219308168
0.07885416667,0.02217985503
0.078875,0.02227145433
0.07889583333,0.02237180434
0.07891666667,0.02248417214
0.0789375,0.02264065668
0.07895833333,0.02282128297
0.07897916667,0.02290318534
0.079,0.02289116196
0.07902083333,0.02286550775
0.07904166667,0.02280828543
0.0790625,0.02280388586
0.07908333333,0.02284588292
0.07910416667,0.02282960899
0.079125,0.02285275981
0.07914583333,0.02296135575
0.07916666667,0.02311843075
0.0791875,0.02323114872
0.07920833333,0.02332964167
0.07922916667,0.02337169275
0.07925,0.023322694
0.07927083333,0.02327603847
0.07929166667,0.02323811315
0.0793125,0.02313943952
0.07933333333,0.0230140835
0.07935416667,0.02293252572
0.079375,0.02293603308
0.07939583333,0.02298409306
0.07941666667,0.02306429483
0.0794375,0.02315874211
0.07945833333,0.02328804694
0.07947916667,0.02343685366
0.0795,0.02356312051
0.07952083333,0.02365806326
0.07954166667,0.02367834933
0.0795625,0.02374593541
0.07958333333,0.0237610843
0.07960416667,0.02374070697
0.079625,0.02375711314
0.07964583333,0.02377637289
0.07966666667,0.02392576449
0.0796875,0.02410632186
0.07970833333,0.02435580082
0.07972916667,0.0246842429
0.07975,0.02490662411
0.07977083333,0.02520557493
0.07979166667,0.02544198185
0.0798125,0.0255466029
0.07983333333,0.0257118661
0.07985416667,0.02584495395
0.079875,0.02598060295
0.07989583333,0.026198823
0.07991666667,0.02634585463
0.0799375,0.02657995746
0.07995833333,0.02681478858
0.07997916667,0.02705477178
0.08,0.02748635225
0.08002083333,0.02776538022
0.08004166667,0.02805415727
0.0800625,0.0283439029
0.08008333333,0.02854320966
0.08010416667,0.02873739414
0.080125,0.02889163978
0.08014583333,0.02904365957
0.08016666667,0.02921351977
0.0801875,0.02938244678
0.08020833333,0.02959613316
0.08022916667,0.02987925336
0.08025,0.03018684499
0.08027083333,0.0305200275
0.08029166667,0.03089224175
0.0803125,0.03127276525
0.08033333333,0.03157765046
0.08035416667,0.03179132938
0.080375,0.03203548491
0.08039583333,0.03217354417
0.08041666667,0.03223213181
0.0804375,0.03236066923
0.08045833333,0.03244958073
0.08047916667,0.03264069557
0.0805,0.03287672997
0.08052083333,0.03310581297
0.08054166667,0.03343040124
0.0805625,0.03370013088
0.08058333333,0.03396036476
0.08060416667,0.03417831287
0.080625,0.03432318941
0.08064583333,0.0345258005
0.08066666667,0.03458219767
0.0806875,0.03462007269
0.08070833333,0.03469241783
0.08072916667,0.03466716409
0.08075,0.03469766304
0.08077083333,0.03472113237
0.08079166667,0.03480735049
0.0808125,0.03497042879
0.08083333333,0.035154704
0.08085416667,0.03539925814
0.080875,0.03564502299
0.08089583333,0.03582998738
0.08091666667,0.0360234566
0.0809375,0.03615067154
0.08095833333,0.03617852926
0.08097916667,0.03630301356
0.081,0.03642363101
0.08102083333,0.03654340282
0.08104166667,0.03672546148
0.0810625,0.03687401116
0.08108333333,0.03708552942
0.08110416667,0.03724897653
0.081125,0.03738011047
0.08114583333,0.03757296875
0.08116666667,0.0376829356
0.0811875,0.037744537
0.08120833333,0.03778598458
0.08122916667,0.03773024678
0.08125,0.03762540221
0.08127083333,0.03747275099
0.08129166667,0.03736973554
0.0813125,0.03732677177
0.08133333333,0.0372161977
0.08135416667,0.03716292232
0.081375,0.03708254173
0.08139583333,0.03701307625
0.08141666667,0.03703075647
0.0814375,0.03698151186
0.08145833333,0.03692947328
0.08147916667,0.03685276955
0.0815,0.03670455515
0.08152083333,0.03649540991
0.08154166667,0.03627703339
0.0815625,0.03601455316
0.08158333333,0.03577003628
0.08160416667,0.03560602292
0.081625,0.03545464948
0.08164583333,0.03537526354
0.08166666667,0.0353121087
0.0816875,0.03528072685
0.08170833333,0.03526527062
0.08172916667,0.03523987532
0.08175,0.03515067697
0.08177083333,0.03491149843
0.08179166667,0.03470846638
0.0818125,0.03452744707
0.08183333333,0.03434146196
0.08185416667,0.03414587677
0.081875,0.03402849659
0.08189583333,0.03395330161
0.08191666667,0.03379613906
0.0819375,0.03374819085
0.08195833333,0.03366393223
0.08197916667,0.03351760283
0.082,0.03342600912
0.08202083333,0.03324637935
0.08204166667,0.03302104399
0.0820625,0.03270621225
0.08208333333,0.03237975761
0.08210416667,0.03202350438
0.082125,0.03168601915
0.08214583333,0.03136293963
0.08216666667,0.03106868081
0.0821875,0.03088008426
0.08220833333,0.03070579469
0.08222916667,0.03055647761
0.08225,0.03044609912
0.08227083333,0.03034202196
0.08229166667,0.03017937578
0.0823125,0.02993967384
0.08233333333,0.02969099209
0.08235416667,0.029373575
0.082375,0.02904588729
0.08239583333,0.02880213782
0.08241666667,0.02853049152
0.0824375,0.02827871218
0.08245833333,0.02808091044
0.08247916667,0.02787427232
0.0825,0.02768896706
0.08252083333,0.02754782327
0.08254166667,0.02739548311
0.0825625,0.02724972367
0.08258333333,0.02706819586
0.08260416667,0.02678154968
0.082625,0.02642508596
0.08264583333,0.02600666136
0.08266666667,0.02564932592
0.0826875,0.02519318089
0.08270833333,0.02479962446
0.08272916667,0.02444563061
0.08275,0.02409114689
0.08277083333,0.02399172634
0.08279166667,0.02366364747
0.0828125,0.0234241318
0.08283333333,0.02323695645
0.08285416667,0.02288462222
0.082875,0.02265503258
0.08289583333,0.02223202027
0.08291666667,0.02194276638
0.0829375,0.02157984115
0.08295833333,0.02118318528
0.08297916667,0.02088728547
0.083,0.02050421759
0.08302083333,0.02024497651
0.08304166667,0.01997939683
0.0830625,0.01973791234
0.08308333333,0.01940970495
0.08310416667,0.01914418675
0.083125,0.01883141883
0.08314583333,0.01839366555
0.08316666667,0.01800281741
0.0831875,0.01748351566
0.08320833333,0.01696579158
0.08322916667,0.01646981202
0.08325,0.0160175804
0.08327083333,0.01565525122
0.08329166667,0.01532661077
0.0833125,0.0150650125
0.08333333333,0.0148725016
0.08335416667,0.01472070068
0.083375,0.01451147534
0.08339583333,0.0143158203
0.08341666667,0.01405879389
0.0834375,0.01375542767
0.08345833333,0.01342366077
0.08347916667,0.01301234402
0.0835,0.01267967746
0.08352083333,0.01237962488
0.08354166667,0.01210539974
0.0835625,0.01184481382
0.08358333333,0.0115960855
0.08360416667,0.01136795152
0.083625,0.01113002189
0.08364583333,0.01091169752
0.08366666667,0.01070097089
0.0836875,0.01048730593
0.08370833333,0.01021292806
0.08372916667,0.009897626005
0.08375,0.009511036798
0.08377083333,0.009081526659
0.08379166667,0.008697321638
0.0838125,0.008325111121
0.08383333333,0.008039383218
0.08385416667,0.007752779406
0.083875,0.007596294861
0.08389583333,0.007530321833
0.08391666667,0.00740302261
0.0839375,0.007349401712
0.08395833333,0.007189176977
0.08397916667,0.007016380318
0.084,0.006713889539
0.08402083333,0.006330662873
0.08404166667,0.006092703436
0.0840625,0.005778960884
0.08408333333,0.005599603057
0.08410416667,0.005425492767
0.084125,0.00531746028
0.08414583333,0.005356880371
0.08416666667,0.005312011112
0.0841875,0.005337540992
0.08420833333,0.005309338216
0.08422916667,0.005261272658
0.08425,0.005223370157
0.08427083333,0.005061235279
0.08429166667,0.00486185262
0.0843125,0.004634068348
0.08433333333,0.004368340131
0.08435416667,0.004079632461
0.084375,0.003787936643
0.08439583333,0.00352525292
0.08441666667,0.00334803341
0.0844375,0.003258226439
0.08445833333,0.003194407327
0.08447916667,0.003195516299
0.0845,0.003188745352
0.08452083333,0.003070317907
0.08454166667,0.00290735485
0.0845625,0.002660422586
0.08458333333,0.002379434183
0.08460416667,0.002140596742
0.084625,0.001864050049
0.08464583333,0.001641348237
0.08466666667,0.00146361324
0.0846875,0.001262577018
0.08470833333,0.001119609922
0.08472916667,0.0009731870377
0.08475,0.000839260756
0.08477083333,0.0006847641198
0.08479166667,0.0004989870358
0.0848125,0.0003363932192
0.08483333333,0.0001151691249
0.08485416667,-8.402968524e-05
0.084875,-0.0002752185392
0.08489583333,-0.0005541351275
0.08491666667,-0.0007666493766
0.0849375,-0.001023105578
0.08495833333,-0.001267042011
0.08497916667,-0.001471026917
0.085,-0.001681047725
0.08502083333,-0.001758393948
0.08504166667,-0.001908877864
0.0850625,-0.002079921775
0.08508333333,-0.002238385379
0.08510416667,-0.002489397302
0.085125,-0.002673739102
0.08514583333,-0.002950436901
0.08516666667,-0.003283071797
0.0851875,-0.003624070203
0.08520833333,-0.00395108806
0.08522916667,-0.00419064099
0.08525,-0.004440859426
0.08527083333,-0.004604981747
0.08529166667,-0.004775609355
0.0853125,-0.004970819689
0.08533333333,-0.005195231177
0.08535416667,-0.005502018612
0.085375,-0.005783605389
0.08539583333,-0.006110268179
0.08541666667,-0.006388480309
0.0854375,-0.006632296834
0.08545833333,-0.006920905318
0.08547916667,-0.007177544292
0.0855,-0.007428179961
0.08552083333,-0.007681719493
0.08554166667,-0.007928416133
0.0855625,-0.008168763481
0.08558333333,-0.008369507268
0.08560416667,-0.008532922715
0.085625,-0.008656166494
0.08564583333,-0.008746167645
0.08566666667,-0.008894717321
0.0856875,-0.009058168158
0.08570833333,-0.009245779365
0.08572916667,-0.00949227158
0.08575,-0.009691962972
0.08577083333,-0.009829686023
0.08579166667,-0.009901534766
0.0858125,-0.009963336401
0.08583333333,-0.01001918782
0.08585416667,-0.01008391939
0.085875,-0.01016275678
0.08589583333,-0.01023065951
0.08591666667,-0.01035075076
0.0859375,-0.01046882756
0.08595833333,-0.01057920698
0.08597916667,-0.01068679616
0.086,-0.01080526412
0.08602083333,-0.0109555386
0.08604166667,-0.01107458584
0.0860625,-0.01120712608
0.08608333333,-0.01132653933
0.08610416667,-0.01143263932
0.086125,-0.01153603476
0.08614583333,-0.0115614403
0.08616666667,-0.01159165334
0.0861875,-0.01164785866
0.08620833333,-0.01171395741
0.08622916667,-0.0118445158
0.08625,-0.0119089447
0.08627083333,-0.01199449506
0.08629166667,-0.01211016346
0.0863125,-0.01221522968
0.08633333333,-0.012379569
0.08635416667,-0.01244315878
0.086375,-0.0124886157
0.08639583333,-0.01252687629
0.08641666667,-0.01250035223
0.0864375,-0.01251138188
0.08645833333,-0.01249705721
0.08647916667,-0.01251713093
0.0865,-0.01253973227
0.08652083333,-0.01257731114
0.08654166667,-0.01267972402
0.0865625,-0.01279921085
0.08658333333,-0.0129196234
0.08660416667,-0.01299629826
0.086625,-0.0130892992
0.08664583333,-0.0131730279
0.08666666667,-0.01323280483
0.0866875,-0.01328537427
0.08670833333,-0.01330911089
0.08672916667,-0.01336214878
0.08675,-0.01342499442
0.08677083333,-0.01354204863
0.08679166667,-0.01368289627
0.0868125,-0.01381026767
0.08683333333,-0.01400882192
0.08685416667,-0.01416424848
0.086875,-0.01429426577
0.08689583333,-0.01447346993
0.08691666667,-0.0146242138
0.0869375,-0.01476295386
0.08695833333,-0.01488636248
0.08697916667,-0.01497002505
0.087,-0.01505169645
0.08702083333,-0.01516440324
0.08704166667,-0.01528175641
0.0870625,-0.01539488416
0.08708333333,-0.01554821711
0.08710416667,-0.01569689065
0.087125,-0.0158549957
0.08714583333,-0.01599162817
0.08716666667,-0.01606137492
0.0871875,-0.01613038778
0.08720833333,-0.01617143489
0.08722916667,-0.01623622701
0.08725,-0.01629122719
0.08727083333,-0.01630529016
0.08729166667,-0.01638855413
0.0873125,-0.01646959968
0.08733333333,-0.01653158106
0.08735416667,-0.01662552357
0.087375,-0.01671185531
0.08739583333,-0.0168160256
0.08741666667,-0.01693391986
0.0874375,-0.01704173721
0.08745833333,-0.01718469709
0.08747916667,-0.01731122285
0.0875,-0.01739024185
0.08752083333,-0.0174769219
0.08754166667,-0.01751208864
0.0875625,-0.01753117144
0.08758333333,-0.01759440824
0.08760416667,-0.01767138205
0.087625,-0.01779007912
0.08764583333,-0.01790395379
0.08766666667,-0.01805598475
0.0876875,-0.01822224259
0.08770833333,-0.01838875748
0.08772916667,-0.01855755411
0.08775,-0.01866534725
0.08777083333,-0.01875685342
0.08779166667,-0.01880311035
0.0878125,-0.01885633171
0.08783333333,-0.01887535304
0.08785416667,-0.01892328262
0.087875,-0.01906112209
0.08789583333,-0.01913394779
0.08791666667,-0.0192503687
0.0879375,-0.01938671246
0.08795833333,-0.01950350776
0.08797916667,-0.01966213807
0.088,-0.01978050172
0.08802083333,-0.01988133229
0.08804166667,-0.01993398182
0.0880625,-0.01996567659
0.08808333333,-0.01996980794
0.08810416667,-0.01994163729
0.088125,-0.01996940374
0.08814583333,-0.01998421736
0.08816666667,-0.02003869601
0.0881875,-0.02017717995
0.08820833333,-0.02028048784
0.08822916667,-0.02037323639
0.08825,-0.020467842
0.08827083333,-0.02056063898
0.08829166667,-0.02065788209
0.0883125,-0.0207205154
0.08833333333,-0.02076329105
0.08835416667,-0.0208007358
0.088375,-0.02083671279
0.08839583333,-0.02088507079
0.08841666667,-0.02094784193
0.0884375,-0.02103861235
0.08845833333,-0.02117890492
0.08847916667,-0.02131735906
0.0885,-0.02142212726
0.08852083333,-0.02151022479
0.08854166667,-0.02161842398
0.0885625,-0.02173194475
0.08858333333,-0.02178803459
0.08860416667,-0.0218266435
0.088625,-0.02181451768
0.08864583333,-0.02180034854
0.08866666667,-0.0218061544
0.0886875,-0.02176710777
0.08870833333,-0.0217896793
0.08872916667,-0.02179771103
0.08875,-0.02182790078
0.08877083333,-0.02193328552
0.08879166667,-0.02194213867
0.0888125,-0.02200684138
0.08883333333,-0.02207591571
0.08885416667,-0.022093229
0.088875,-0.0221366547
0.08889583333,-0.02212713659
0.08891666667,-0.0221197214
0.0889375,-0.0221239198
0.08895833333,-0.02213176712
0.08897916667,-0.02221075073
0.089,-0.02231954038
0.08902083333,-0.02246369049
0.08904166667,-0.02257096581
0.0890625,-0.02267330885
0.08908333333,-0.02279472724
0.08910416667,-0.02290290222
0.089125,-0.02297732793
0.08914583333,-0.02300848253
0.08916666667,-0.02309999615
0.0891875,-0.02313950844
0.08920833333,-0.02314153872
0.08922916667,-0.02319761179
0.08925,-0.02320671268
0.08927083333,-0.02323088422
0.08929166667,-0.02323312685
0.0893125,-0.02330088243
0.08933333333,-0.02344920859
0.08935416667,-0.02354680374
0.089375,-0.02366954274
0.08939583333,-0.0237398427
0.08941666667,-0.02378190123
0.0894375,-0.02385128103
0.08945833333,-0.02386366576
0.08947916667,-0.02390943468
0.0895,-0.02400790527
0.08952083333,-0.02412874624
0.08954166667,-0.02433131263
0.0895625,-0.02455200255
0.08958333333,-0.02475988306
0.08960416667,-0.02497447841
0.089625,-0.02511404455
0.08964583333,-0.02528101578
0.08966666667,-0.02549649775
0.0896875,-0.02568081953
0.08970833333,-0.02591047436
0.08972916667,-0.02605993114
0.08975,-0.02620937489
0.08977083333,-0.02642034739
0.08979166667,-0.02649660781
0.0898125,-0.02660257556
0.08983333333,-0.02673768997
0.08985416667,-0.02691900544
0.089875,-0.02718365192
0.08989583333,-0.02739107609
0.08991666667,-0.02765584551
0.0899375,-0.02786468156
0.08995833333,-0.02803854831
0.08997916667,-0.02825566754
0.09,-0.02840125561
0.09002083333,-0.02856609784
0.09004166667,-0.0287474338
0.0900625,-0.028934028
0.09008333333,-0.02913007513
0.09010416667,-0.02934690192
0.090125,-0.02963375114
0.09014583333,-0.02991438843
0.09016666667,-0.0302377753
0.0901875,-0.03054908104
0.09020833333,-0.03082664311
0.09022916667,-0.03110523708
0.09025,-0.03131902218
0.09027083333,-0.03156481683
0.09029166667,-0.03179979697
0.0903125,-0.03198155761
0.09033333333,-0.03217576817
0.09035416667,-0.0322910808
0.090375,-0.03243712708
