time,data
0,6.580719525e-09
2.083333333e-05,1.45071537e-08
4.166666667e-05,2.201392135e-08
6.25e-05,2.905072449e-08
8.333333333e-05,3.611835808e-08
0.0001041666667,4.352472516e-08
0.000125,5.139035508e-08
0.0001458333333,5.952817261e-08
0.0001666666667,6.748965831e-08
0.0001875,7.524455725e-08
0.0002083333333,8.282678721e-08
0.0002291666667,9.080728347e-08
0.00025,9.945262036e-08
0.0002708333333,1.088589769e-07
0.0002916666667,1.187585781e-07
0.0003125,1.286317399e-07
0.0003333333333,1.383747872e-07
0.0003541666667,1.478610869e-07
0.000375,1.57508893e-07
0.0003958333333,1.673875261e-07
0.0004166666667,1.774771476e-07
0.0004375,1.874708886e-07
0.0004583333333,1.968540602e-07
0.0004791666667,2.055593029e-07
0.0005,2.134535038e-07
0.0005208333333,2.210055072e-07
0.0005416666667,2.283730822e-07
0.0005625,2.357714237e-07
0.0005833333333,2.430890333e-07
0.0006041666667,2.499776883e-07
0.000625,2.563210728e-07
0.0006458333333,2.618363339e-07
0.0006666666667,2.668560342e-07
0.0006875,2.714364769e-07
0.0007083333333,2.758490609e-07
0.0007291666667,2.799023093e-07
0.00075,2.830683172e-07
0.0007708333333,2.849266423e-07
0.0007916666667,2.848691452e-07
0.0008125,2.832721577e-07
0.0008333333333,2.803654411e-07
0.0008541666667,2.768716172e-07
0.000875,2.72861655e-07
0.0008958333333,2.678817168e-07
0.0009166666667,2.61492886e-07
0.0009375,2.531012058e-07
0.0009583333333,2.433696693e-07
0.0009791666667,2.329354771e-07
0.001,2.227517513e-07
0.001020833333,2.128405754e-07
0.001041666667,2.022703569e-07
0.0010625,1.90108679e-07
0.001083333333,1.754546872e-07
0.001104166667,1.589659746e-07
0.001125,1.414516504e-07
0.001145833333,1.239311018e-07
0.001166666667,1.062139035e-07
0.0011875,8.722672362e-08
0.001208333333,6.590572355e-08
0.001229166667,4.180886748e-08
0.00125,1.615417133e-08
0.001270833333,-9.656832667e-09
0.001291666667,-3.425908091e-08
0.0013125,-5.793230784e-08
0.001333333333,-8.181610411e-08
0.001354166667,-1.070118145e-07
0.001375,-1.339304276e-07
0.001395833333,-1.612115454e-07
0.001416666667,-1.878123612e-07
0.0014375,-2.127349887e-07
0.001458333333,-2.368713581e-07
0.001479166667,-2.616703796e-07
0.0015,-2.882496233e-07
0.001520833333,-3.168631508e-07
0.001541666667,-3.460030769e-07
0.0015625,-3.744829655e-07
0.001583333333,-4.012663339e-07
0.001604166667,-4.268243288e-07
0.001625,-4.521172627e-07
0.001645833333,-4.776433116e-07
0.001666666667,-5.033018624e-07
0.0016875,-5.276191359e-07
0.001708333333,-5.496776794e-07
0.001729166667,-5.686407007e-07
0.00175,-5.852307936e-07
0.001770833333,-6.003516546e-07
0.001791666667,-6.149874139e-07
0.0018125,-6.295291541e-07
0.001833333333,-6.432892405e-07
0.001854166667,-6.558112773e-07
0.001875,-6.661815064e-07
0.001895833333,-6.74676869e-07
0.001916666667,-6.817328995e-07
0.0019375,-6.879622561e-07
0.001958333333,-6.939048376e-07
0.001979166667,-6.985932828e-07
0.002,-7.012738479e-07
0.002020833333,-7.001648896e-07
0.002041666667,-6.949314297e-07
0.0020625,-6.859535233e-07
0.002083333333,-6.74466321e-07
0.002104166667,-6.619590636e-07
0.002125,-6.483222705e-07
0.002145833333,-6.328842233e-07
0.002166666667,-6.140527944e-07
0.0021875,-5.913634027e-07
0.002208333333,-5.659794624e-07
0.002229166667,-5.3981978e-07
0.00225,-5.149034905e-07
0.002270833333,-4.90867194e-07
0.002291666667,-4.66003911e-07
0.0023125,-4.37572055e-07
0.002333333333,-4.045049025e-07
0.002354166667,-3.677152165e-07
0.002375,-3.296332238e-07
0.002395833333,-2.920612587e-07
0.002416666667,-2.545588984e-07
0.0024375,-2.148914149e-07
0.002458333333,-1.704753743e-07
0.002479166667,-1.210137697e-07
0.0025,-6.870161684e-08
0.002520833333,-1.699203445e-08
0.002541666667,3.159481565e-08
0.0025625,7.773307686e-08
0.002583333333,1.235719793e-07
0.002604166667,1.719304379e-07
0.002625,2.228587164e-07
0.002645833333,2.743873893e-07
0.002666666667,3.236824568e-07
0.0026875,3.693524491e-07
0.002708333333,4.129648232e-07
0.002729166667,4.573896604e-07
0.00275,5.051219318e-07
0.002770833333,5.562317256e-07
0.002791666667,6.082598247e-07
0.0028125,6.585761412e-07
0.002833333333,7.053328659e-07
0.002854166667,7.494718375e-07
0.002875,7.924806482e-07
0.002895833333,8.357906722e-07
0.002916666667,8.787405363e-07
0.0029375,9.192771699e-07
0.002958333333,9.552295523e-07
0.002979166667,9.855056078e-07
0.003,1.01098135e-06
0.003020833333,1.033513854e-06
0.003041666667,1.0548722e-06
0.0030625,1.075911428e-06
0.003083333333,1.095832772e-06
0.003104166667,1.113637609e-06
0.003125,1.127869268e-06
0.003145833333,1.138688617e-06
0.003166666667,1.146597128e-06
0.0031875,1.153121389e-06
0.003208333333,1.158823579e-06
0.003229166667,1.163027378e-06
0.00325,1.163775323e-06
0.003270833333,1.158348255e-06
0.003291666667,1.145589977e-06
0.0033125,1.126038228e-06
0.003333333333,1.10210442e-06
0.003354166667,1.076531362e-06
0.003375,1.049561774e-06
0.003395833333,1.020264222e-06
0.003416666667,9.853858955e-07
0.0034375,9.443636486e-07
0.003458333333,8.984822557e-07
0.003479166667,8.516981893e-07
0.0035,8.074056836e-07
0.003520833333,7.654712704e-07
0.003541666667,7.228880463e-07
0.0035625,6.748109058e-07
0.003583333333,6.190215913e-07
0.003604166667,5.57168562e-07
0.003625,4.932007869e-07
0.003645833333,4.308435848e-07
0.003666666667,3.691341988e-07
0.0036875,3.046857842e-07
0.003708333333,2.325824795e-07
0.003729166667,1.525039153e-07
0.00375,6.777322881e-08
0.003770833333,-1.526084681e-08
0.003791666667,-9.256478961e-08
0.0038125,-1.648144945e-07
0.003833333333,-2.360042117e-07
0.003854166667,-3.108503392e-07
0.003875,-3.896126941e-07
0.003895833333,-4.689910611e-07
0.003916666667,-5.441532949e-07
0.0039375,-6.125461596e-07
0.003958333333,-6.772091297e-07
0.003979166667,-7.42422742e-07
0.004,-8.133572464e-07
0.004020833333,-8.891435073e-07
0.004041666667,-9.665851621e-07
0.0040625,-1.040325969e-06
0.004083333333,-1.107872777e-06
0.004104166667,-1.170584142e-06
0.004125,-1.231183546e-06
0.004145833333,-1.292333536e-06
0.004166666667,-1.352661002e-06
0.0041875,-1.408894718e-06
0.004208333333,-1.457157964e-06
0.004229166667,-1.495601623e-06
0.00425,-1.526301048e-06
0.004270833333,-1.551818286e-06
0.004291666667,-1.57639488e-06
0.0043125,-1.599932943e-06
0.004333333333,-1.62239121e-06
0.004354166667,-1.640480946e-06
0.004375,-1.652930223e-06
0.004395833333,-1.659659574e-06
0.004416666667,-1.661953888e-06
0.0044375,-1.662958766e-06
0.004458333333,-1.662689897e-06
0.004479166667,-1.660629664e-06
0.0045,-1.652546871e-06
0.004520833333,-1.634372552e-06
0.004541666667,-1.604923455e-06
0.0045625,-1.564517447e-06
0.004583333333,-1.519042598e-06
0.004604166667,-1.4706103e-06
0.004625,-1.421564093e-06
0.004645833333,-1.367873438e-06
0.004666666667,-1.305953901e-06
0.0046875,-1.234383717e-06
0.004708333333,-1.155754831e-06
0.004729166667,-1.077367187e-06
0.00475,-1.003221541e-06
0.004770833333,-9.340724887e-07
0.004791666667,-8.63583125e-07
0.0048125,-7.846389281e-07
0.004833333333,-6.943743642e-07
0.004854166667,-5.94705682e-07
0.004875,-4.941534257e-07
0.004895833333,-3.958517141e-07
0.004916666667,-3.007113207e-07
0.0049375,-2.004023116e-07
0.004958333333,-8.933552209e-08
0.004979166667,3.399951964e-08
0.005,1.636378641e-07
0.005020833333,2.889123323e-07
0.005041666667,4.049717006e-07
0.0050625,5.115397812e-07
0.005083333333,6.167372248e-07
0.005104166667,7.267796605e-07
0.005125,8.421533266e-07
0.005145833333,9.582824987e-07
0.005166666667,1.06573475e-06
0.0051875,1.163454385e-06
0.005208333333,1.253010282e-06
0.005229166667,1.344542056e-06
0.00525,1.44295268e-06
0.005270833333,1.548997716e-06
0.005291666667,1.656553991e-06
0.0053125,1.757401151e-06
0.005333333333,1.848936336e-06
0.005354166667,1.931496172e-06
0.005375,2.011419838e-06
0.005395833333,2.090776206e-06
0.005416666667,2.168722176e-06
0.0054375,2.240249842e-06
0.005458333333,2.298403615e-06
0.005479166667,2.343140068e-06
0.0055,2.373820962e-06
0.005520833333,2.398674496e-06
0.005541666667,2.419488283e-06
0.0055625,2.439982381e-06
0.005583333333,2.457747314e-06
0.005604166667,2.469001856e-06
0.005625,2.472840606e-06
0.005645833333,2.466754268e-06
0.005666666667,2.455597951e-06
0.0056875,2.440586968e-06
0.005708333333,2.424319973e-06
0.005729166667,2.405266287e-06
0.00575,2.376765224e-06
0.005770833333,2.335813406e-06
0.005791666667,2.276137138e-06
0.0058125,2.203332087e-06
0.005833333333,2.120144927e-06
0.005854166667,2.034633781e-06
0.005875,1.947133114e-06
0.005895833333,1.853773028e-06
0.005916666667,1.750121555e-06
0.0059375,1.631674195e-06
0.005958333333,1.505320029e-06
0.005979166667,1.377425178e-06
0.006,1.257122335e-06
0.006020833333,1.143891041e-06
0.006041666667,1.029053806e-06
0.0060625,9.048818015e-07
0.006083333333,7.627582477e-07
0.006104166667,6.109596598e-07
0.006125,4.547612775e-07
0.006145833333,3.04842132e-07
0.006166666667,1.579641378e-07
0.0061875,5.457648999e-09
0.006208333333,-1.606898792e-07
0.006229166667,-3.445906316e-07
0.00625,-5.34456376e-07
0.006270833333,-7.198168532e-07
0.006291666667,-8.897978887e-07
0.0063125,-1.046673106e-06
0.006333333333,-1.20073571e-06
0.006354166667,-1.359042699e-06
0.006375,-1.526012966e-06
0.006395833333,-1.689759188e-06
0.006416666667,-1.844042572e-06
0.0064375,-1.980592742e-06
0.006458333333,-2.107842192e-06
0.006479166667,-2.235287411e-06
0.0065,-2.37186282e-06
0.006520833333,-2.518812835e-06
0.006541666667,-2.664837893e-06
0.0065625,-2.803132247e-06
0.006583333333,-2.924957016e-06
0.006604166667,-3.035674808e-06
0.006625,-3.141022034e-06
0.006645833333,-3.244116215e-06
0.006666666667,-3.346280209e-06
0.0066875,-3.434892278e-06
0.006708333333,-3.508064765e-06
0.006729166667,-3.557338005e-06
0.00675,-3.590293318e-06
0.006770833333,-3.611949978e-06
0.006791666667,-3.628700142e-06
0.0068125,-3.644652679e-06
0.006833333333,-3.654193051e-06
0.006854166667,-3.656501576e-06
0.006875,-3.644647904e-06
0.006895833333,-3.621305495e-06
0.006916666667,-3.58885768e-06
0.0069375,-3.551230066e-06
0.006958333333,-3.512971034e-06
0.006979166667,-3.467167289e-06
0.007,-3.411965963e-06
0.007020833333,-3.333643917e-06
0.007041666667,-3.233946245e-06
0.0070625,-3.111972774e-06
0.007083333333,-2.978275916e-06
0.007104166667,-2.841121159e-06
0.007125,-2.699667448e-06
0.007145833333,-2.552764727e-06
0.007166666667,-2.387331733e-06
0.0071875,-2.204952807e-06
0.007208333333,-2.009043328e-06
0.007229166667,-1.812641926e-06
0.00725,-1.628272003e-06
0.007270833333,-1.4509219e-06
0.007291666667,-1.276028684e-06
0.0073125,-1.082279823e-06
0.007333333333,-8.694985354e-07
0.007354166667,-6.387834901e-07
0.007375,-4.061039647e-07
0.007395833333,-1.818437028e-07
0.007416666667,3.844856877e-08
0.0074375,2.63210211e-07
0.007458333333,5.105416676e-07
0.007479166667,7.779412954e-07
0.0075,1.056471319e-06
0.007520833333,1.326141046e-06
0.007541666667,1.573351938e-06
0.0075625,1.803996497e-06
0.007583333333,2.025623189e-06
0.007604166667,2.258301038e-06
0.007625,2.496448587e-06
0.007645833333,2.735474482e-06
0.007666666667,2.956517392e-06
0.0076875,3.154779279e-06
0.007708333333,3.338765282e-06
0.007729166667,3.520097835e-06
0.00775,3.716371566e-06
0.007770833333,3.921889856e-06
0.007791666667,4.129979516e-06
0.0078125,4.323650046e-06
0.007833333333,4.495407211e-06
0.007854166667,4.65176754e-06
0.007875,4.79597611e-06
0.007895833333,4.941749012e-06
0.007916666667,5.078645245e-06
0.0079375,5.204140052e-06
0.007958333333,5.302388217e-06
0.007979166667,5.371829502e-06
0.008,5.41678537e-06
0.008020833333,5.443811915e-06
0.008041666667,5.466569291e-06
0.0080625,5.482585493e-06
0.008083333333,5.494813649e-06
0.008104166667,5.493139724e-06
0.008125,5.47435684e-06
0.008145833333,5.43955457e-06
0.008166666667,5.388264526e-06
0.0081875,5.333924491e-06
0.008208333333,5.270843303e-06
0.008229166667,5.205049092e-06
0.00825,5.119783964e-06
0.008270833333,5.009434972e-06
0.008291666667,4.867169991e-06
0.0083125,4.694475592e-06
0.008333333333,4.507630365e-06
0.008354166667,4.310417808e-06
0.008375,4.113185696e-06
0.008395833333,3.903489414e-06
0.008416666667,3.673679203e-06
0.0084375,3.420168468e-06
0.008458333333,3.146044492e-06
0.008479166667,2.875154905e-06
0.0085,2.611660193e-06
0.008520833333,2.365748969e-06
0.008541666667,2.115036068e-06
0.0085625,1.847041631e-06
0.008583333333,1.550065917e-06
0.008604166667,1.23020061e-06
0.008625,9.088973911e-07
0.008645833333,5.931901796e-07
0.008666666667,2.885007291e-07
0.0086875,-2.76957266e-08
0.008708333333,-3.67680002e-07
0.008729166667,-7.357367053e-07
0.00875,-1.119054104e-06
0.008770833333,-1.487347049e-06
0.008791666667,-1.833900001e-06
0.0088125,-2.150362889e-06
0.008833333333,-2.464102863e-06
0.008854166667,-2.78323364e-06
0.008875,-3.114978881e-06
0.008895833333,-3.444808044e-06
0.008916666667,-3.750763881e-06
0.0089375,-4.031328444e-06
0.008958333333,-4.287359843e-06
0.008979166667,-4.546698165e-06
0.009,-4.818724392e-06
0.009020833333,-5.106130175e-06
0.009041666667,-5.395685093e-06
0.0090625,-5.663203865e-06
0.009083333333,-5.908549156e-06
0.009104166667,-6.124977517e-06
0.009125,-6.335441867e-06
0.009145833333,-6.538431535e-06
0.009166666667,-6.736966498e-06
0.0091875,-6.915994618e-06
0.009208333333,-7.059969903e-06
0.009229166667,-7.168800039e-06
0.00925,-7.24056008e-06
0.009270833333,-7.295928754e-06
0.009291666667,-7.339395324e-06
0.0093125,-7.379349427e-06
0.009333333333,-7.41124677e-06
0.009354166667,-7.423198895e-06
0.009375,-7.416356311e-06
0.009395833333,-7.380383977e-06
0.009416666667,-7.333092981e-06
0.0094375,-7.271733011e-06
0.009458333333,-7.209055639e-06
0.009479166667,-7.135297892e-06
0.0095,-7.038497188e-06
0.009520833333,-6.908670002e-06
0.009541666667,-6.732265319e-06
0.0095625,-6.524180208e-06
0.009583333333,-6.290586043e-06
0.009604166667,-6.051732726e-06
0.009625,-5.807965863e-06
0.009645833333,-5.547498404e-06
0.009666666667,-5.262926152e-06
0.0096875,-4.939083283e-06
0.009708333333,-4.599055046e-06
0.009729166667,-4.252362032e-06
0.00975,-3.926708814e-06
0.009770833333,-3.614575007e-06
0.009791666667,-3.299640866e-06
0.0098125,-2.959667427e-06
0.009833333333,-2.577871101e-06
0.009854166667,-2.173132543e-06
0.009875,-1.759252768e-06
0.009895833333,-1.361691943e-06
0.009916666667,-9.718751244e-07
0.0099375,-5.690191642e-07
0.009958333333,-1.353683814e-07
0.009979166667,3.41515431e-07
0.01,8.37856021e-07
0.01002083333,1.331389626e-06
0.01004166667,1.772572659e-06
0.0100625,2.17369552e-06
0.01008333333,2.559696441e-06
0.01010416667,2.959910262e-06
0.010125,3.387610377e-06
0.01014583333,3.819477115e-06
0.01016666667,4.233080745e-06
0.0101875,4.603488833e-06
0.01020833333,4.942959094e-06
0.01022916667,5.275432159e-06
0.01025,5.622281606e-06
0.01027083333,5.996901109e-06
0.01029166667,6.374551049e-06
0.0103125,6.74373041e-06
0.01033333333,7.075000212e-06
0.01035416667,7.379195267e-06
0.010375,7.657927199e-06
0.01039583333,7.925025784e-06
0.01041666667,8.180976693e-06
0.0104375,8.409856491e-06
0.01045833333,8.610850273e-06
0.01047916667,8.769620763e-06
0.0105,8.898263332e-06
0.01052083333,9.003008017e-06
0.01054166667,9.090595086e-06
0.0105625,9.167600183e-06
0.01058333333,9.220730135e-06
0.01060416667,9.256033991e-06
0.010625,9.25933e-06
0.01064583333,9.24757569e-06
0.01066666667,9.216425497e-06
0.0106875,9.179258086e-06
0.01070833333,9.132379091e-06
0.01072916667,9.06522564e-06
0.01075,8.969054761e-06
0.01077083333,8.821983101e-06
0.01079166667,8.632642675e-06
0.0108125,8.402606909e-06
0.01083333333,8.153861017e-06
0.01085416667,7.901360732e-06
0.010875,7.634721442e-06
0.01089583333,7.350929991e-06
0.01091666667,7.014109087e-06
0.0109375,6.639516414e-06
0.01095833333,6.229798146e-06
0.01097916667,5.829916063e-06
0.011,5.457130101e-06
0.01102083333,5.10825339e-06
0.01104166667,4.764430287e-06
0.0110625,4.376573543e-06
0.01108333333,3.94123299e-06
0.01110416667,3.460639846e-06
0.011125,2.971336926e-06
0.01114583333,2.501064955e-06
0.01116666667,2.043457698e-06
0.0111875,1.586611916e-06
0.01120833333,1.081618052e-06
0.01122916667,5.367758149e-07
0.01125,-4.378888363e-08
0.01127083333,-6.120942544e-07
0.01129166667,-1.145071337e-06
0.0113125,-1.639354082e-06
0.01133333333,-2.111453568e-06
0.01135416667,-2.594552825e-06
0.011375,-3.085680873e-06
0.01139583333,-3.58039415e-06
0.01141666667,-4.051479664e-06
0.0114375,-4.490039373e-06
0.01145833333,-4.911389169e-06
0.01147916667,-5.326226074e-06
0.0115,-5.766926733e-06
0.01152083333,-6.211511845e-06
0.01154166667,-6.658010989e-06
0.0115625,-7.07186382e-06
0.01158333333,-7.454259958e-06
0.01160416667,-7.815648132e-06
0.011625,-8.16364718e-06
0.01164583333,-8.515385161e-06
0.01166666667,-8.849840015e-06
0.0116875,-9.152768143e-06
0.01170833333,-9.400778254e-06
0.01172916667,-9.591167327e-06
0.01175,-9.740251699e-06
0.01177083333,-9.860871614e-06
0.01179166667,-9.98336418e-06
0.0118125,-1.009263724e-05
0.01183333333,-1.019866977e-05
0.01185416667,-1.027190137e-05
0.011875,-1.030972544e-05
0.01189583333,-1.031489319e-05
0.01191666667,-1.028985935e-05
0.0119375,-1.025875463e-05
0.01195833333,-1.022105971e-05
0.01197916667,-1.017701106e-05
0.012,-1.010511733e-05
0.01202083333,-9.97938514e-06
0.01204166667,-9.793835488e-06
0.0120625,-9.544381101e-06
0.01208333333,-9.267543646e-06
0.01210416667,-8.967735084e-06
0.012125,-8.671989235e-06
0.01214583333,-8.363014786e-06
0.01216666667,-8.028143384e-06
0.0121875,-7.648796782e-06
0.01220833333,-7.234317309e-06
0.01222916667,-6.809713341e-06
0.01225,-6.39460859e-06
0.01227083333,-5.997816061e-06
0.01229166667,-5.596530173e-06
0.0123125,-5.168918051e-06
0.01233333333,-4.704751973e-06
0.01235416667,-4.199041541e-06
0.012375,-3.68676956e-06
0.01239583333,-3.172174274e-06
0.01241666667,-2.665370857e-06
0.0124375,-2.130616394e-06
0.01245833333,-1.563958676e-06
0.01247916667,-9.585029375e-07
0.0125,-3.414667731e-07
0.01252083333,2.526995786e-07
0.01254166667,8.129707112e-07
0.0125625,1.348683327e-06
0.01258333333,1.887116582e-06
0.01260416667,2.443321591e-06
0.012625,3.010836508e-06
0.01264583333,3.561157655e-06
0.01266666667,4.059873845e-06
0.0126875,4.518219612e-06
0.01270833333,4.946906756e-06
0.01272916667,5.397920631e-06
0.01275,5.878117918e-06
0.01277083333,6.393503099e-06
0.01279166667,6.894188573e-06
0.0128125,7.356274637e-06
0.01283333333,7.771270248e-06
0.01285416667,8.146084838e-06
0.012875,8.518835784e-06
0.01289583333,8.893727681e-06
0.01291666667,9.260862498e-06
0.0129375,9.59632689e-06
0.01295833333,9.869240785e-06
0.01297916667,1.008146774e-05
0.013,1.023409641e-05
0.01302083333,1.036959566e-05
0.01304166667,1.048645117e-05
0.0130625,1.060477643e-05
0.01308333333,1.070374219e-05
0.01310416667,1.07708729e-05
0.013125,1.080871789e-05
0.01314583333,1.081166829e-05
0.01316666667,1.079670437e-05
0.0131875,1.077139223e-05
0.01320833333,1.073463318e-05
0.01322916667,1.067232461e-05
0.01325,1.05730569e-05
0.01327083333,1.041720498e-05
0.01329166667,1.019684805e-05
0.0133125,9.951909306e-06
0.01333333333,9.667484846e-06
0.01335416667,9.377161405e-06
0.013375,9.065663107e-06
0.01339583333,8.71107477e-06
0.01341666667,8.310727026e-06
0.0134375,7.857148375e-06
0.01345833333,7.385929166e-06
0.01347916667,6.939460491e-06
0.0135,6.528095128e-06
0.01352083333,6.144199688e-06
0.01354166667,5.738342679e-06
0.0135625,5.281819995e-06
0.01358333333,4.746889772e-06
0.01360416667,4.175849881e-06
0.013625,3.600280024e-06
0.01364583333,3.068039632e-06
0.01366666667,2.560760322e-06
0.0136875,2.045528618e-06
0.01370833333,1.472017516e-06
0.01372916667,8.284097817e-07
0.01375,1.406868222e-07
0.01377083333,-5.45842056e-07
0.01379166667,-1.172006137e-06
0.0138125,-1.739959657e-06
0.01383333333,-2.264837804e-06
0.01385416667,-2.782436468e-06
0.013875,-3.33118146e-06
0.01389583333,-3.878233201e-06
0.01391666667,-4.425182397e-06
0.0139375,-4.941171483e-06
0.01395833333,-5.433346359e-06
0.01397916667,-5.912377674e-06
0.014,-6.387181202e-06
0.01402083333,-6.851975286e-06
0.01404166667,-7.298629953e-06
0.0140625,-7.728124729e-06
0.01408333333,-8.141025319e-06
0.01410416667,-8.557842193e-06
0.014125,-8.990480637e-06
0.01414583333,-9.412452528e-06
0.01416666667,-9.787920135e-06
0.0141875,-1.00753814e-05
0.01420833333,-1.026813243e-05
0.01422916667,-1.038640221e-05
0.01425,-1.050075116e-05
0.01427083333,-1.062634965e-05
0.01429166667,-1.078864625e-05
0.0143125,-1.09450948e-05
0.01433333333,-1.103300292e-05
0.01435416667,-1.102671922e-05
0.014375,-1.092717048e-05
0.01439583333,-1.080032871e-05
0.01441666667,-1.071058705e-05
0.0144375,-1.067709763e-05
0.01445833333,-1.070838516e-05
0.01447916667,-1.071138831e-05
0.0145,-1.063331365e-05
0.01452083333,-1.040162442e-05
0.01454166667,-1.003844682e-05
0.0145625,-9.59998124e-06
0.01458333333,-9.174815204e-06
0.01460416667,-8.80987227e-06
0.014625,-8.513164175e-06
0.01464583333,-8.214476111e-06
0.01466666667,-7.846931112e-06
0.0146875,-7.360682503e-06
0.01470833333,-6.774901067e-06
0.01472916667,-6.163054877e-06
0.01475,-5.607566436e-06
0.01477083333,-5.141022939e-06
0.01479166667,-4.742824331e-06
0.0148125,-4.333285688e-06
0.01483333333,-3.842436399e-06
0.01485416667,-3.220475719e-06
0.014875,-2.505569228e-06
0.01489583333,-1.782893946e-06
0.01491666667,-1.103565751e-06
0.0149375,-5.062306059e-07
0.01495833333,2.951357914e-08
0.01497916667,5.602569217e-07
0.015,1.127609153e-06
0.01502083333,1.770025506e-06
0.01504166667,2.471572088e-06
0.0150625,3.205447001e-06
0.01508333333,3.932659183e-06
0.01510416667,4.624437679e-06
0.015125,5.219558716e-06
0.01514583333,5.732377304e-06
0.01516666667,6.159506484e-06
0.0151875,6.570056485e-06
0.01520833333,7.002710845e-06
0.01522916667,7.497865226e-06
0.01525,8.04350293e-06
0.01527083333,8.59654574e-06
0.01529166667,9.094842426e-06
0.0153125,9.500365195e-06
0.01533333333,9.838412552e-06
0.01535416667,1.017125851e-05
0.015375,1.052524385e-05
0.01539583333,1.096103279e-05
0.01541666667,1.139645974e-05
0.0154375,1.176767364e-05
0.01545833333,1.199354483e-05
0.01547916667,1.206696197e-05
0.0155,1.202845124e-05
0.01552083333,1.195877212e-05
0.01554166667,1.194323067e-05
0.0155625,1.199306462e-05
0.01558333333,1.208253616e-05
0.01560416667,1.214427903e-05
0.015625,1.211334802e-05
0.01564583333,1.200299266e-05
0.01566666667,1.182560482e-05
0.0156875,1.164365494e-05
0.01570833333,1.148108367e-05
0.01572916667,1.134738432e-05
0.01575,1.116220301e-05
0.01577083333,1.088996032e-05
0.01579166667,1.050285209e-05
0.0158125,1.001547935e-05
0.01583333333,9.516290447e-06
0.01585416667,9.04366243e-06
0.015875,8.621488632e-06
0.01589583333,8.213688488e-06
0.01591666667,7.737255146e-06
0.0159375,7.179737622e-06
0.01595833333,6.514510915e-06
0.01597916667,5.843610779e-06
0.016,5.204225999e-06
0.01602083333,4.648435151e-06
0.01604166667,4.122858627e-06
0.0160625,3.587211495e-06
0.01608333333,2.960405254e-06
0.01610416667,2.228312269e-06
0.016125,1.468937853e-06
0.01614583333,7.26650569e-07
0.01616666667,6.560499344e-08
0.0161875,-5.506187222e-07
0.01620833333,-1.164444598e-06
0.01622916667,-1.822021204e-06
0.01625,-2.57489819e-06
0.01627083333,-3.378430392e-06
0.01629166667,-4.213276952e-06
0.0163125,-4.996497864e-06
0.01633333333,-5.714448434e-06
0.01635416667,-6.340281743e-06
0.016375,-6.893620593e-06
0.01639583333,-7.402647952e-06
0.01641666667,-7.877519238e-06
0.0164375,-8.378097846e-06
0.01645833333,-8.914222235e-06
0.01647916667,-9.522318578e-06
0.0165,-1.011858876e-05
0.01652083333,-1.066002369e-05
0.01654166667,-1.111697475e-05
0.0165625,-1.14677805e-05
0.01658333333,-1.181045809e-05
0.01660416667,-1.214202803e-05
0.016625,-1.257827535e-05
0.01664583333,-1.302864894e-05
0.01666666667,-1.345021246e-05
0.0166875,-1.373950545e-05
0.01670833333,-1.384942425e-05
0.01672916667,-1.383829749e-05
0.01675,-1.375565989e-05
0.01677083333,-1.371222515e-05
0.01679166667,-1.376308774e-05
0.0168125,-1.387047541e-05
0.01683333333,-1.394810442e-05
0.01685416667,-1.392042941e-05
0.016875,-1.373881605e-05
0.01689583333,-1.341653751e-05
0.01691666667,-1.307119783e-05
0.0169375,-1.276131388e-05
0.01695833333,-1.257878012e-05
0.01697916667,-1.246117517e-05
0.017,-1.234796127e-05
0.01702083333,-1.209382572e-05
0.01704166667,-1.164725199e-05
0.0170625,-1.103728209e-05
0.01708333333,-1.031851571e-05
0.01710416667,-9.635995411e-06
0.017125,-9.032777598e-06
0.01714583333,-8.510385669e-06
0.01716666667,-7.99866757e-06
0.0171875,-7.388026916e-06
0.01720833333,-6.683553238e-06
0.01722916667,-5.879160199e-06
0.01725,-5.082678399e-06
0.01727083333,-4.33686364e-06
0.01729166667,-3.682537454e-06
0.0173125,-3.075107543e-06
0.01733333333,-2.461508075e-06
0.01735416667,-1.787010774e-06
0.017375,-1.014347163e-06
0.01739583333,-1.560766094e-07
0.01741666667,7.789519145e-07
0.0174375,1.74955926e-06
0.01745833333,2.681225851e-06
0.01747916667,3.548343329e-06
0.0175,4.309394626e-06
0.01752083333,4.950195489e-06
0.01754166667,5.58037209e-06
0.0175625,6.28040425e-06
0.01758333333,7.082665888e-06
0.01760416667,7.973795618e-06
0.017625,8.883791452e-06
0.01764583333,9.648935702e-06
0.01766666667,1.024475932e-05
0.0176875,1.070061717e-05
0.01770833333,1.112808513e-05
0.01772916667,1.162956778e-05
0.01775,1.225282631e-05
0.01777083333,1.295740822e-05
0.01779166667,1.359113685e-05
0.0178125,1.414316557e-05
0.01783333333,1.451634307e-05
0.01785416667,1.482856896e-05
0.017875,1.51015729e-05
0.01789583333,1.543270628e-05
0.01791666667,1.581127435e-05
0.0179375,1.618312854e-05
0.01795833333,1.651705315e-05
0.01797916667,1.67305061e-05
0.018,1.680859168e-05
0.01802083333,1.676026477e-05
0.01804166667,1.658968176e-05
0.0180625,1.643552059e-05
0.01808333333,1.624599099e-05
0.01810416667,1.612929373e-05
0.018125,1.602668453e-05
0.01814583333,1.594425703e-05
0.01816666667,1.584246093e-05
0.0181875,1.564450395e-05
0.01820833333,1.53613455e-05
0.01822916667,1.49916732e-05
0.01825,1.456493919e-05
0.01827083333,1.407149921e-05
0.01829166667,1.358126701e-05
0.0183125,1.30465578e-05
0.01833333333,1.250595687e-05
0.01835416667,1.196990161e-05
0.018375,1.131360932e-05
0.01839583333,1.060851901e-05
0.01841666667,9.789182513e-06
0.0184375,8.899811291e-06
0.01845833333,8.038659871e-06
0.01847916667,7.256078334e-06
0.0185,6.626546565e-06
0.01852083333,6.026396477e-06
0.01854166667,5.399042038e-06
0.0185625,4.56735097e-06
0.01858333333,3.611054581e-06
0.01860416667,2.553445256e-06
0.018625,1.500688086e-06
0.01864583333,6.340676464e-07
0.01866666667,-1.262873042e-07
0.0186875,-8.107015788e-07
0.01870833333,-1.59360286e-06
0.01872916667,-2.510764716e-06
0.01875,-3.583226317e-06
0.01877083333,-4.68229473e-06
0.01879166667,-5.708293429e-06
0.0188125,-6.641168511e-06
0.01883333333,-7.373677818e-06
0.01885416667,-8.075664482e-06
0.018875,-8.743118997e-06
0.01889583333,-9.438962479e-06
0.01891666667,-1.021763364e-05
0.0189375,-1.098523535e-05
0.01895833333,-1.178377352e-05
0.01897916667,-1.251746198e-05
0.019,-1.31740162e-05
0.01902083333,-1.369436723e-05
0.01904166667,-1.416676241e-05
0.0190625,-1.462027558e-05
0.01908333333,-1.510897437e-05
0.01910416667,-1.570032327e-05
0.019125,-1.633387183e-05
0.01914583333,-1.692597471e-05
0.01916666667,-1.734409489e-05
0.0191875,-1.756555321e-05
0.01920833333,-1.762740976e-05
0.01922916667,-1.757093378e-05
0.01925,-1.764431181e-05
0.01927083333,-1.780580351e-05
0.01929166667,-1.806390901e-05
0.0193125,-1.831136251e-05
0.01933333333,-1.836044976e-05
0.01935416667,-1.81744108e-05
0.019375,-1.778308797e-05
0.01939583333,-1.731919838e-05
0.01941666667,-1.693729246e-05
0.0194375,-1.675332351e-05
0.01945833333,-1.674604391e-05
0.01947916667,-1.676855572e-05
0.0195,-1.666073331e-05
0.01952083333,-1.624275683e-05
0.01954166667,-1.557387441e-05
0.0195625,-1.469012204e-05
0.01958333333,-1.384528059e-05
0.01960416667,-1.314359997e-05
0.019625,-1.264447474e-05
0.01964583333,-1.224653352e-05
0.01966666667,-1.173579403e-05
0.0196875,-1.105040792e-05
0.01970833333,-1.005308422e-05
0.01972916667,-8.918545973e-06
0.01975,-7.84828535e-06
0.01977083333,-6.949920589e-06
0.01979166667,-6.407610272e-06
0.0198125,-5.971817245e-06
0.01983333333,-5.491192042e-06
0.01985416667,-4.736685696e-06
0.019875,-3.606102155e-06
0.01989583333,-2.190234909e-06
0.01991666667,-7.595000966e-07
0.0199375,4.594593292e-07
0.01995833333,1.334375497e-06
0.01997916667,1.821654905e-06
0.02,2.324148909e-06
0.02002083333,2.978208613e-06
0.02004166667,3.93304299e-06
0.0200625,5.171850717e-06
0.02008333333,6.515893801e-06
0.02010416667,7.697716683e-06
0.020125,8.508252904e-06
0.02014583333,9.021607184e-06
0.02016666667,9.328347915e-06
0.0201875,9.826615496e-06
0.02020833333,1.065332435e-05
0.02022916667,1.170063661e-05
0.02025,1.284389964e-05
0.02027083333,1.370451446e-05
0.02029166667,1.41934288e-05
0.0203125,1.44014557e-05
0.02033333333,1.452861306e-05
0.02035416667,1.489122405e-05
0.020375,1.553905349e-05
0.02039583333,1.643337418e-05
0.02041666667,1.72365144e-05
0.0204375,1.787777182e-05
0.02045833333,1.818083729e-05
0.02047916667,1.819501995e-05
0.0205,1.809793321e-05
0.02052083333,1.801418694e-05
0.02054166667,1.807402623e-05
0.0205625,1.821372098e-05
0.02058333333,1.840510413e-05
0.02060416667,1.844514736e-05
0.020625,1.836842966e-05
0.02064583333,1.810061622e-05
0.02066666667,1.768451875e-05
0.0206875,1.739555955e-05
0.02070833333,1.715155122e-05
0.02072916667,1.706785406e-05
0.02075,1.696607615e-05
0.02077083333,1.666629396e-05
0.02079166667,1.615027759e-05
0.0208125,1.54810914e-05
0.02083333333,1.479609e-05
0.02085416667,1.420559875e-05
0.020875,1.37584384e-05
0.02089583333,1.331919975e-05
0.02091666667,1.282588073e-05
0.0209375,1.223533127e-05
0.02095833333,1.154147776e-05
0.02097916667,1.074969168e-05
0.021,9.875867363e-06
0.02102083333,8.9851128e-06
0.02104166667,8.048321433e-06
0.0210625,7.2386797e-06
0.02108333333,6.398915957e-06
0.02110416667,5.600420081e-06
0.021125,4.815431566e-06
0.02114583333,3.815800483e-06
0.02116666667,2.659074198e-06
0.0211875,1.280921197e-06
0.02120833333,4.492125072e-08
0.02122916667,-9.404723187e-07
0.02125,-1.649815886e-06
0.02127083333,-2.145845656e-06
0.02129166667,-2.71564727e-06
0.0213125,-3.452599231e-06
0.02133333333,-4.372620879e-06
0.02135416667,-5.311764653e-06
0.021375,-6.18592685e-06
0.02139583333,-6.974439657e-06
0.02141666667,-7.781062777e-06
0.0214375,-8.522848475e-06
0.02145833333,-9.237975064e-06
0.02147916667,-9.938524272e-06
0.0215,-1.056090514e-05
0.02152083333,-1.12182297e-05
0.02154166667,-1.200249426e-05
0.0215625,-1.287989744e-05
0.02158333333,-1.380890171e-05
0.02160416667,-1.457330291e-05
0.021625,-1.506286753e-05
0.02164583333,-1.526793494e-05
0.02166666667,-1.546385101e-05
0.0216875,-1.563604746e-05
0.02170833333,-1.599021562e-05
0.02172916667,-1.636170782e-05
0.02175,-1.670174242e-05
0.02177083333,-1.690147292e-05
0.02179166667,-1.689205237e-05
0.0218125,-1.673373845e-05
0.02183333333,-1.6515467e-05
0.02185416667,-1.616751979e-05
0.021875,-1.593677371e-05
0.02189583333,-1.584408892e-05
0.02191666667,-1.605594116e-05
0.0219375,-1.661859278e-05
0.02195833333,-1.708142918e-05
0.02197916667,-1.727893505e-05
0.022,-1.697908374e-05
0.02202083333,-1.610405707e-05
0.02204166667,-1.507229535e-05
0.0220625,-1.423967387e-05
0.02208333333,-1.37173738e-05
0.02210416667,-1.358409918e-05
0.022125,-1.359412363e-05
0.02214583333,-1.328518192e-05
0.02216666667,-1.281135428e-05
0.0221875,-1.184468783e-05
0.02220833333,-1.05512936e-05
0.02222916667,-9.051484994e-06
0.02225,-7.5726266e-06
0.02227083333,-6.807664249e-06
0.02229166667,-6.889942597e-06
0.0223125,-7.567561624e-06
0.02233333333,-8.183845239e-06
0.02235416667,-7.961397387e-06
0.022375,-6.508416391e-06
0.02239583333,-4.02259775e-06
0.02241666667,-1.571176881e-06
0.0224375,-4.22676294e-08
0.02245833333,1.414149438e-07
0.02247916667,-5.350837e-07
0.0225,-1.04807566e-06
0.02252083333,-6.563738566e-07
0.02254166667,6.550241096e-07
0.0225625,2.476538384e-06
0.02258333333,4.239009741e-06
0.02260416667,5.663214324e-06
0.022625,6.640709216e-06
0.02264583333,7.37198161e-06
0.02266666667,7.83759242e-06
0.0226875,7.93853269e-06
0.02270833333,7.6903234e-06
0.02272916667,7.508516774e-06
0.02275,7.966783414e-06
0.02277083333,9.295231393e-06
0.02279166667,1.105897081e-05
0.0228125,1.24816188e-05
0.02283333333,1.307158527e-05
0.02285416667,1.260768022e-05
0.022875,1.17289319e-05
0.02289583333,1.147054536e-05
0.02291666667,1.202982276e-05
0.0229375,1.326133861e-05
0.02295833333,1.459336272e-05
0.02297916667,1.541478559e-05
0.023,1.569961933e-05
0.02302083333,1.571318353e-05
0.02304166667,1.56560709e-05
0.0230625,1.563296973e-05
0.02308333333,1.537264325e-05
0.02310416667,1.470668121e-05
0.023125,1.400409201e-05
0.02314583333,1.357270048e-05
0.02316666667,1.357805922e-05
0.0231875,1.379395508e-05
0.02320833333,1.405751573e-05
0.02322916667,1.374859494e-05
0.02325,1.304777379e-05
0.02327083333,1.220438298e-05
0.02329166667,1.15737148e-05
0.0233125,1.124964547e-05
0.02333333333,1.106511263e-05
0.02335416667,1.109132882e-05
0.023375,1.117210741e-05
0.02339583333,1.145476654e-05
0.02341666667,1.173054534e-05
0.0234375,1.175052785e-05
0.02345833333,1.115058694e-05
0.02347916667,9.853933079e-06
0.0235,8.295260159e-06
0.02352083333,6.867360753e-06
0.02354166667,6.054549885e-06
0.0235625,5.737223091e-06
0.02358333333,5.430329111e-06
0.02360416667,4.727663509e-06
0.023625,3.618512892e-06
0.02364583333,2.334335477e-06
0.02366666667,1.129644261e-06
0.0236875,2.746155587e-07
0.02370833333,-9.178038454e-07
0.02372916667,-2.098071036e-06
0.02375,-3.200276069e-06
0.02377083333,-3.843173545e-06
0.02379166667,-3.910567557e-06
0.0238125,-3.523452961e-06
0.02383333333,-3.782668045e-06
0.02385416667,-4.608305971e-06
0.023875,-5.945139037e-06
0.02389583333,-7.345452104e-06
0.02391666667,-7.945495781e-06
0.0239375,-7.892139365e-06
0.02395833333,-7.75222361e-06
0.02397916667,-8.010678357e-06
0.024,-9.024653991e-06
0.02402083333,-1.035654986e-05
0.02404166667,-1.128115218e-05
0.0240625,-1.161773343e-05
0.02408333333,-1.15111734e-05
0.02410416667,-1.131617682e-05
0.024125,-1.165026333e-05
0.02414583333,-1.223351228e-05
0.02416666667,-1.292381967e-05
0.0241875,-1.335203069e-05
0.02420833333,-1.34850352e-05
0.02422916667,-1.342675114e-05
0.02425,-1.339641949e-05
0.02427083333,-1.343957865e-05
0.02429166667,-1.362205785e-05
0.0243125,-1.407756554e-05
0.02433333333,-1.465187597e-05
0.02435416667,-1.515979602e-05
0.024375,-1.556010648e-05
0.02439583333,-1.535317824e-05
0.02441666667,-1.450067612e-05
0.0244375,-1.352008348e-05
0.02445833333,-1.293954574e-05
0.02447916667,-1.309042e-05
0.0245,-1.383037761e-05
0.02452083333,-1.445121779e-05
0.02454166667,-1.396568587e-05
0.0245625,-1.272313693e-05
0.02458333333,-1.08087188e-05
0.02460416667,-8.872408216e-06
0.024625,-7.433465271e-06
0.02464583333,-6.588032193e-06
0.02466666667,-6.157407825e-06
0.0246875,-6.070869858e-06
0.02470833333,-6.320467492e-06
0.02472916667,-6.72840315e-06
0.02475,-7.169415767e-06
0.02477083333,-7.062973964e-06
0.02479166667,-6.534331078e-06
0.0248125,-5.870811947e-06
0.02483333333,-5.579338904e-06
0.02485416667,-6.034435955e-06
0.024875,-6.997197488e-06
0.02489583333,-7.48051616e-06
0.02491666667,-6.62311686e-06
0.0249375,-4.767656719e-06
0.02495833333,-2.183442575e-06
0.02497916667,1.807036369e-07
0.025,1.76193339e-06
0.02502083333,2.969675734e-06
0.02504166667,4.016978437e-06
0.0250625,5.419751233e-06
0.02508333333,7.052683031e-06
0.02510416667,8.283510397e-06
0.025125,8.820819858e-06
0.02514583333,8.885697753e-06
0.02516666667,8.614014405e-06
0.0251875,8.195086593e-06
0.02520833333,8.16179454e-06
0.02522916667,8.056896149e-06
0.02525,8.707854249e-06
0.02527083333,9.74215709e-06
0.02529166667,1.073221756e-05
0.0253125,1.086814882e-05
0.02533333333,9.648805644e-06
0.02535416667,6.983178082e-06
0.025375,4.033260211e-06
0.02539583333,2.485028745e-06
0.02541666667,3.840098088e-06
0.0254375,7.85735574e-06
0.02545833333,1.352919298e-05
0.02547916667,1.797813638e-05
0.0255,1.975960186e-05
0.02552083333,1.84503624e-05
0.02554166667,1.553753827e-05
0.0255625,1.240945585e-05
0.02558333333,1.056116162e-05
0.02560416667,1.050295214e-05
0.025625,1.154348956e-05
0.02564583333,1.340724884e-05
0.02566666667,1.490277646e-05
0.0256875,1.535908814e-05
0.02570833333,1.388512464e-05
0.02572916667,1.007607352e-05
0.02575,5.294486527e-06
0.02577083333,1.079593858e-06
0.02579166667,-7.034886949e-07
0.0258125,9.69359462e-07
0.02583333333,5.264239007e-06
0.02585416667,1.049687216e-05
0.025875,1.446515307e-05
0.02589583333,1.605799662e-05
0.02591666667,1.477379556e-05
0.0259375,1.17993859e-05
0.02595833333,9.204422895e-06
0.02597916667,7.196249953e-06
0.026,6.390687304e-06
0.02602083333,6.70738973e-06
0.02604166667,7.407956218e-06
0.0260625,7.561501661e-06
0.02608333333,6.95573317e-06
0.02610416667,5.18251727e-06
0.026125,2.724855221e-06
0.02614583333,-2.734638542e-07
0.02616666667,-3.126651336e-06
0.0261875,-5.4488969e-06
0.02620833333,-6.697190656e-06
0.02622916667,-6.832388863e-06
0.02625,-5.2233313e-06
0.02627083333,-2.957597417e-06
0.02629166667,-2.997294359e-07
0.0263125,8.344891285e-07
0.02633333333,4.596422514e-07
0.02635416667,-2.118637894e-06
0.026375,-5.117286491e-06
0.02639583333,-7.484693924e-06
0.02641666667,-7.85634802e-06
0.0264375,-6.93956963e-06
0.02645833333,-4.772290595e-06
0.02647916667,-3.452528745e-06
0.0265,-3.076499979e-06
0.02652083333,-4.140143119e-06
0.02654166667,-5.814481028e-06
0.0265625,-8.032293408e-06
0.02658333333,-1.045937279e-05
0.02660416667,-1.287734176e-05
0.026625,-1.466181129e-05
0.02664583333,-1.479009279e-05
0.02666666667,-1.251150388e-05
0.0266875,-9.068910913e-06
0.02670833333,-5.755392522e-06
0.02672916667,-4.649656148e-06
0.02675,-6.225600828e-06
0.02677083333,-9.353749192e-06
0.02679166667,-1.159270687e-05
0.0268125,-1.2012556e-05
0.02683333333,-1.020973559e-05
0.02685416667,-7.489799373e-06
0.026875,-5.471595159e-06
0.02689583333,-4.609447842e-06
0.02691666667,-5.174475973e-06
0.0269375,-6.714869414e-06
0.02695833333,-8.492958841e-06
0.02697916667,-1.11800864e-05
0.027,-1.427978532e-05
0.02702083333,-1.666435855e-05
0.02704166667,-1.63243094e-05
0.0270625,-1.35387636e-05
0.02708333333,-7.749005817e-06
0.02710416667,-1.566875198e-06
0.027125,3.329463652e-06
0.02714583333,4.797783276e-06
0.02716666667,2.923882221e-06
0.0271875,-5.519436854e-07
0.02720833333,-3.637527016e-06
0.02722916667,-4.316503237e-06
0.02725,-1.49025459e-06
0.02727083333,2.553610102e-06
0.02729166667,6.087616384e-06
0.0273125,5.733790204e-06
0.02733333333,1.803063242e-06
0.02735416667,-4.449899279e-06
0.027375,-9.379416042e-06
0.02739583333,-1.15939547e-05
0.02741666667,-1.039868675e-05
0.0274375,-8.088281902e-06
0.02745833333,-5.333329227e-06
0.02747916667,-3.1682589e-06
0.0275,3.831621598e-07
0.02752083333,5.02353123e-06
0.02754166667,1.083413099e-05
0.0275625,1.468753817e-05
0.02758333333,1.563930527e-05
0.02760416667,1.300579788e-05
0.027625,1.045067438e-05
0.02764583333,1.068287747e-05
0.02766666667,1.335459001e-05
0.0276875,1.565544335e-05
0.02770833333,1.493693344e-05
0.02772916667,1.132706893e-05
0.02775,7.682428077e-06
0.02777083333,7.107252713e-06
0.02779166667,1.067416088e-05
0.0278125,1.447830891e-05
0.02783333333,1.452481229e-05
0.02785416667,7.373479093e-06
0.027875,-3.420115718e-06
0.02789583333,-1.105963293e-05
0.02791666667,-9.809679796e-06
0.0279375,8.859851732e-07
0.02795833333,1.603271085e-05
0.02797916667,2.728014442e-05
0.028,3.05896283e-05
0.02802083333,2.749354826e-05
0.02804166667,1.976136627e-05
0.0280625,1.153568883e-05
0.02808333333,4.765249741e-06
0.02810416667,3.104669304e-07
0.028125,1.154026904e-06
0.02814583333,7.40312953e-06
0.02816666667,1.777697616e-05
0.0281875,2.615231278e-05
0.02820833333,2.549011697e-05
0.02822916667,1.320526462e-05
0.02825,-6.363837201e-06
0.02827083333,-2.253721141e-05
0.02829166667,-2.632254473e-05
0.0283125,-1.642908319e-05
0.02833333333,7.633552741e-07
0.02835416667,1.587460065e-05
0.028375,2.45284391e-05
0.02839583333,2.576356383e-05
0.02841666667,2.326675894e-05
0.0284375,1.791234899e-05
0.02845833333,1.123655238e-05
0.02847916667,3.396344255e-06
0.0285,-2.027214578e-06
0.02852083333,-2.110242349e-06
0.02854166667,3.41052214e-06
0.0285625,1.093835726e-05
0.02858333333,1.260059435e-05
0.02860416667,4.164814072e-06
0.028625,-9.446915101e-06
0.02864583333,-1.861132296e-05
0.02866666667,-1.637306923e-05
0.0286875,-5.503775355e-06
0.02870833333,2.907353974e-06
0.02872916667,-4.74147555e-07
0.02875,-1.491938201e-05
0.02877083333,-2.714561924e-05
0.02879166667,-2.740477066e-05
0.0288125,-1.279849675e-05
0.02883333333,4.953865755e-06
0.02885416667,1.115394298e-05
0.028875,5.32278591e-07
0.02889583333,-1.81926298e-05
0.02891666667,-3.079306407e-05
0.0289375,-2.787507037e-05
0.02895833333,-1.575741226e-05
0.02897916667,-9.345018952e-06
0.029,-1.435766899e-05
0.02902083333,-2.088745532e-05
0.02904166667,-1.91549625e-05
0.0290625,-1.390024408e-06
0.02908333333,1.740003972e-05
0.02910416667,1.960077316e-05
0.029125,-6.059583029e-06
0.02914583333,-4.388522575e-05
0.02916666667,-6.793319335e-05
0.0291875,-5.849960507e-05
0.02920833333,-1.993810292e-05
0.02922916667,1.949074067e-05
0.02925,3.24569337e-05
0.02927083333,1.245608746e-05
0.02929166667,-2.456798393e-05
0.0293125,-5.155471445e-05
0.02933333333,-5.763814988e-05
0.02935416667,-4.80610106e-05
0.029375,-4.216188245e-05
0.02939583333,-3.976402877e-05
0.02941666667,-3.124000068e-05
0.0294375,-5.770187272e-06
0.02945833333,2.886744551e-05
0.02947916667,4.198245733e-05
0.0295,1.289084958e-05
0.02952083333,-5.476493243e-05
0.02954166667,-0.0001237416291
0.0295625,-0.0001394425635
0.02958333333,-7.903458754e-05
0.02960416667,2.975173265e-05
0.029625,0.0001249071938
0.02964583333,0.0001532187307
0.02966666667,0.0001053740998
0.0296875,1.8025381e-05
0.02970833333,-5.603306636e-05
0.02972916667,-8.888957382e-05
0.02975,-8.170140791e-05
0.02977083333,-6.135706644e-05
0.02979166667,-3.396608372e-05
0.0298125,-1.042599251e-08
0.02983333333,4.861348498e-05
0.02985416667,8.295017324e-05
0.029875,6.665731053e-05
0.02989583333,-1.645417433e-05
0.02991666667,-0.0001474365126
0.0299375,-0.0002528381883
0.02995833333,-0.0002453060006
0.02997916667,-0.0001482002845
0.03,0.0001528650173
0.03002083333,0.0002520837297
0.03004166667,0.000260634697
0.0300625,0.0001544864936
0.03008333333,2.159911855e-05
0.03010416667,-6.328726158e-05
0.030125,-7.865731459e-05
0.03014583333,-4.289040226e-05
0.03016666667,7.775673112e-06
0.0301875,4.181911572e-05
0.03020833333,6.943452172e-05
0.03022916667,9.066610801e-05
0.03025,9.929283988e-05
0.03027083333,6.51682567e-05
0.03029166667,-1.412028087e-05
0.0303125,-0.0001110886151
0.03033333333,-0.0001651572529
0.03035416667,-0.0001355264976
0.030375,-2.993050293e-05
0.03039583333,9.13486947e-05
0.03041666667,0.0001599416428
0.0304375,0.0001424134389
0.03045833333,6.524968921e-05
0.03047916667,-1.033847548e-05
0.0305,-4.129947411e-05
0.03052083333,-2.485243567e-05
0.03054166667,1.547580905e-05
0.0305625,4.285722753e-05
0.03058333333,4.992870527e-05
0.03060416667,5.031516775e-05
0.030625,5.739299741e-05
0.03064583333,7.136659406e-05
0.03066666667,6.638660125e-05
0.0306875,3.49778129e-05
0.03070833333,-1.091881586e-05
0.03072916667,-3.787684182e-05
0.03075,-2.407398097e-05
0.03077083333,2.206950194e-05
0.03079166667,6.903921167e-05
0.0308125,8.117583639e-05
0.03083333333,5.285031511e-05
0.03085416667,8.105865163e-06
0.030875,-2.035041143e-05
0.03089583333,-1.463115132e-05
0.03091666667,9.993595086e-06
0.0309375,3.20410727e-05
0.03095833333,3.109967656e-05
0.03097916667,2.049308387e-05
0.031,1.394600531e-05
0.03102083333,2.524298361e-05
0.03104166667,4.578327935e-05
0.0310625,5.336876347e-05
0.03108333333,3.599113916e-05
0.03110416667,9.227256669e-06
0.031125,-1.015350517e-05
0.03114583333,-5.181778761e-06
0.03116666667,1.57745435e-05
0.0311875,3.548543827e-05
0.03120833333,3.694586849e-05
0.03122916667,2.392268652e-05
0.03125,8.55291637e-06
0.03127083333,8.434527444e-06
0.03129166667,2.079849037e-05
0.0313125,3.400651258e-05
0.03133333333,3.159303378e-05
0.03135416667,1.409583274e-05
0.031375,-5.921847333e-06
0.03139583333,-1.428958512e-05
0.03141666667,-6.184161975e-06
0.0314375,1.109964069e-05
0.03145833333,2.298523941e-05
0.03147916667,2.220168608e-05
0.0315,1.084164887e-05
0.03152083333,-3.86894817e-06
0.03154166667,-1.653725849e-05
0.0315625,-2.696608863e-05
0.03158333333,-3.03330944e-05
0.03160416667,-2.509313344e-05
0.031625,-4.721180176e-06
0.03164583333,2.608463183e-05
0.03166666667,5.730878183e-05
0.0316875,7.185153663e-05
0.03170833333,6.046446651e-05
0.03172916667,2.613993638e-05
0.03175,-1.083324059e-05
0.03177083333,-3.246326378e-05
0.03179166667,-2.974947711e-05
0.0318125,-1.219390833e-05
0.03183333333,9.090405001e-06
0.03185416667,1.911814252e-05
0.031875,2.118751217e-05
0.03189583333,1.165555841e-05
0.03191666667,-1.442828307e-06
0.0319375,-1.855481605e-05
0.03195833333,-3.385909076e-05
0.03197916667,-4.075887773e-05
0.032,-3.007837222e-05
0.03202083333,-2.499393304e-06
0.03204166667,3.462708628e-05
0.0320625,5.992071601e-05
0.03208333333,6.16756588e-05
0.03210416667,4.0200277e-05
0.032125,1.190910189e-05
0.03214583333,-6.181372555e-06
0.03216666667,-5.831895578e-06
0.0321875,4.162615824e-06
0.03220833333,1.345675628e-05
0.03222916667,1.167189839e-05
0.03225,1.997390882e-06
0.03227083333,-9.899044016e-06
0.03229166667,-1.38215546e-05
0.0323125,-1.202271505e-05
0.03233333333,-1.100272948e-05
0.03235416667,-1.546778367e-05
0.032375,-2.488941027e-05
0.03239583333,-2.993115413e-05
0.03241666667,-2.266126103e-05
0.0324375,-5.767004041e-06
0.03245833333,1.249320394e-05
0.03247916667,2.448948908e-05
0.0325,2.779405804e-05
0.03252083333,2.544984818e-05
0.03254166667,2.763031262e-05
0.0325625,3.23743443e-05
0.03258333333,3.643308446e-05
0.03260416667,3.464530164e-05
0.032625,2.234557905e-05
0.03264583333,7.397007721e-06
0.03266666667,-5.617255283e-06
0.0326875,-7.93199797e-06
0.03270833333,-3.210400337e-06
0.03272916667,2.451819455e-06
0.03275,3.683195928e-06
0.03277083333,-5.247291028e-06
0.03279166667,-1.554359369e-05
0.0328125,-2.394083276e-05
0.03283333333,-2.623828914e-05
0.03285416667,-1.703838097e-05
0.032875,-2.932494681e-06
0.03289583333,1.221187449e-05
0.03291666667,2.281853449e-05
0.0329375,2.490634142e-05
0.03295833333,2.24789128e-05
0.03297916667,1.577139847e-05
0.033,8.302753486e-06
0.03302083333,2.025184585e-06
0.03304166667,-2.419063549e-06
0.0330625,-6.81637448e-06
0.03308333333,-8.186546438e-06
0.03310416667,-6.919831321e-06
0.033125,-2.707733529e-06
0.03314583333,1.947295459e-06
0.03316666667,4.42421242e-06
0.0331875,1.239148332e-06
0.03320833333,-4.775484285e-06
0.03322916667,-1.088727549e-05
0.03325,-1.207765581e-05
0.03327083333,-6.930315976e-06
0.03329166667,2.649517228e-06
0.0333125,1.039777726e-05
0.03333333333,1.501789848e-05
0.03335416667,1.187863018e-05
0.033375,7.664469194e-06
0.03339583333,1.149255127e-06
0.03341666667,-2.28253657e-06
0.0334375,-8.179674296e-06
0.03345833333,-1.206368415e-05
0.03347916667,-1.419621003e-05
0.0335,-1.222023093e-05
0.03352083333,-6.973335985e-06
0.03354166667,1.225265805e-06
0.0335625,5.689513273e-06
0.03358333333,6.150214176e-06
0.03360416667,-2.163331601e-06
0.033625,-1.023939785e-05
0.03364583333,-1.767454523e-05
0.03366666667,-1.682177935e-05
0.0336875,-1.058291855e-05
0.03370833333,-7.771012633e-07
0.03372916667,1.046499619e-05
0.03375,1.748236537e-05
0.03377083333,1.964379589e-05
0.03379166667,1.762457396e-05
0.0338125,8.379564861e-06
0.03383333333,1.555378333e-07
0.03385416667,-1.087135024e-05
0.033875,-1.707647243e-05
0.03389583333,-1.685977441e-05
0.03391666667,-1.38024443e-05
0.0339375,-4.51312917e-06
0.03395833333,-3.424597423e-07
0.03397916667,-6.833604402e-07
0.034,-9.270467672e-06
0.03402083333,-2.240686081e-05
0.03404166667,-3.216039113e-05
0.0340625,-3.706531061e-05
0.03408333333,-3.248269786e-05
0.03410416667,-1.453833738e-05
0.034125,7.858478057e-06
0.03414583333,3.107546945e-05
0.03416666667,4.685736712e-05
0.0341875,4.895735765e-05
0.03420833333,3.674392792e-05
0.03422916667,1.384729694e-05
0.03425,-8.366996553e-06
0.03427083333,-2.094870615e-05
0.03429166667,-2.02923402e-05
0.0343125,-7.841572369e-06
0.03433333333,4.565184099e-06
0.03435416667,1.074689953e-05
0.034375,6.058116924e-06
0.03439583333,-7.686607205e-06
0.03441666667,-2.283675349e-05
0.0344375,-3.536887016e-05
0.03445833333,-3.668242425e-05
0.03447916667,-2.7499922e-05
0.0345,-7.215544429e-06
0.03452083333,1.569255073e-05
0.03454166667,3.920791642e-05
0.0345625,4.961532613e-05
0.03458333333,4.905199603e-05
0.03460416667,3.391288192e-05
0.034625,1.642804818e-05
0.03464583333,1.451714866e-06
0.03466666667,-5.429875273e-06
0.0346875,-5.025074188e-06
0.03470833333,2.004818953e-06
0.03472916667,5.814225915e-06
0.03475,3.342268428e-06
0.03477083333,-7.840189937e-06
0.03479166667,-1.896677168e-05
0.0348125,-2.877146653e-05
0.03483333333,-3.256017226e-05
0.03485416667,-2.938466605e-05
0.034875,-2.105638123e-05
0.03489583333,-1.046448324e-05
0.03491666667,-8.894163557e-07
0.0349375,2.891393933e-07
0.03495833333,2.016303824e-06
0.03497916667,2.983826107e-06
0.035,5.251216862e-06
0.03502083333,1.17922209e-05
0.03504166667,1.974024417e-05
0.0350625,2.558366032e-05
0.03508333333,2.812339699e-05
0.03510416667,2.820552254e-05
0.035125,2.301528366e-05
0.03514583333,1.636928391e-05
0.03516666667,6.710616617e-06
0.0351875,-1.013833753e-06
0.03520833333,-5.689346381e-06
0.03522916667,-3.503060725e-06
0.03525,-2.681757451e-06
0.03527083333,-4.389594324e-07
0.03529166667,-2.509495062e-06
0.0353125,-9.020933248e-06
0.03533333333,-1.857186362e-05
0.03535416667,-2.563285125e-05
0.035375,-2.634953671e-05
0.03539583333,-2.226754441e-05
0.03541666667,-1.387514385e-05
0.0354375,-5.389440048e-06
0.03545833333,2.600581411e-06
0.03547916667,1.023781715e-05
0.0355,1.446161059e-05
0.03552083333,1.421984598e-05
0.03554166667,1.180623622e-05
0.0355625,6.032014426e-06
0.03558333333,1.052435437e-07
0.03560416667,-4.230065315e-06
0.035625,-2.667256013e-06
0.03564583333,2.463085821e-06
0.03566666667,6.823737749e-06
0.0356875,6.760739325e-06
0.03570833333,3.448520147e-06
0.03572916667,-1.940338962e-06
0.03575,-5.654133474e-06
0.03577083333,-6.706015483e-06
0.03579166667,-4.628009265e-06
0.0358125,-3.867327905e-06
0.03583333333,-4.172206445e-06
0.03585416667,-2.357488711e-06
0.035875,3.074405868e-07
0.03589583333,5.883587164e-06
0.03591666667,1.093447918e-05
0.0359375,1.046265515e-05
0.03595833333,5.798659458e-06
0.03597916667,-2.074528766e-06
0.036,-6.172280337e-06
0.03602083333,-3.467791657e-06
0.03604166667,1.054454515e-06
0.0360625,4.326465387e-06
0.03608333333,5.088908438e-06
0.03610416667,-8.015321669e-07
0.036125,-3.742845138e-06
0.03614583333,-1.044408464e-06
0.03616666667,5.087415502e-06
0.0361875,1.393863931e-05
0.03620833333,2.038971616e-05
0.03622916667,2.079122169e-05
0.03625,2.113493247e-05
0.03627083333,1.735384103e-05
0.03629166667,1.552418689e-05
0.0363125,1.086898465e-05
0.03633333333,3.534706366e-06
0.03635416667,-4.07374182e-06
0.036375,-8.205161066e-06
0.03639583333,-8.001638889e-06
0.03641666667,-1.220976515e-06
0.0364375,2.324881279e-06
0.03645833333,3.783191687e-06
0.03647916667,-2.86981026e-06
0.0365,-1.412579604e-05
0.03652083333,-2.233076884e-05
0.03654166667,-2.477183443e-05
0.0365625,-2.156356095e-05
0.03658333333,-1.073835028e-05
0.03660416667,2.739069032e-06
0.036625,1.809049536e-05
0.03664583333,2.957497236e-05
0.03666666667,3.006396946e-05
0.0366875,2.222170588e-05
0.03670833333,2.639435934e-06
0.03672916667,-1.411829999e-05
0.03675,-2.220583701e-05
0.03677083333,-1.368004541e-05
0.03679166667,2.952084742e-06
0.0368125,1.696225445e-05
0.03683333333,2.358554229e-05
0.03685416667,1.624662946e-05
0.036875,3.575303822e-07
0.03689583333,-1.524293293e-05
0.03691666667,-2.840846173e-05
0.0369375,-2.938772013e-05
0.03695833333,-2.352243246e-05
0.03697916667,-9.70437759e-06
0.037,4.001118214e-06
0.03702083333,1.327402515e-05
0.03704166667,1.957917266e-05
0.0370625,1.19081833e-05
0.03708333333,-6.530612609e-06
0.03710416667,-2.733700603e-05
0.037125,-3.900132288e-05
0.03714583333,-3.82492035e-05
0.03716666667,-1.74038687e-05
0.0371875,5.91343769e-06
0.03720833333,2.234133717e-05
0.03722916667,1.711806362e-05
0.03725,-4.556864496e-06
0.03727083333,-3.375462256e-05
0.03729166667,-5.178114588e-05
0.0373125,-5.409311052e-05
0.03733333333,-4.156499926e-05
0.03735416667,-2.640733692e-05
0.037375,-1.279513253e-05
0.03739583333,-6.494190529e-06
0.03741666667,-3.506906978e-06
0.0374375,-3.978128461e-06
0.03745833333,-1.056799192e-05
0.03747916667,-1.721032459e-05
0.0375,-2.549094825e-05
0.03752083333,-3.040052979e-05
0.03754166667,-1.961076123e-05
0.0375625,-4.184116278e-06
0.03758333333,1.689334022e-05
0.03760416667,2.415699601e-05
0.037625,1.340057588e-05
0.03764583333,-1.247361888e-05
0.03766666667,-3.921862663e-05
0.0376875,-5.476886145e-05
0.03770833333,-5.584890823e-05
0.03772916667,-4.100347724e-05
0.03775,-2.170816151e-05
0.03777083333,-1.076349236e-05
0.03779166667,-9.898836652e-06
0.0378125,-1.69740797e-05
0.03783333333,-2.656895049e-05
0.03785416667,-3.271066089e-05
0.037875,-3.084756463e-05
0.03789583333,-2.192736247e-05
0.03791666667,-1.216792589e-05
0.0379375,-1.265783339e-06
0.03795833333,4.028384865e-06
0.03797916667,4.458795047e-06
0.038,-4.158750016e-06
0.03802083333,-1.920774957e-05
0.03804166667,-3.377835674e-05
0.0380625,-4.475406968e-05
0.03808333333,-4.532774983e-05
0.03810416667,-3.619064228e-05
0.038125,-2.513199433e-05
0.03814583333,-1.507720117e-05
0.03816666667,-1.363289357e-05
0.0381875,-1.980466914e-05
0.03820833333,-2.797250636e-05
0.03822916667,-3.42833082e-05
0.03825,-3.552501585e-05
0.03827083333,-2.358115307e-05
0.03829166667,-7.928792911e-06
0.0383125,8.382454325e-06
0.03833333333,1.47493447e-05
0.03835416667,9.627397958e-06
0.038375,-4.406857897e-06
0.03839583333,-1.804980457e-05
0.03841666667,-2.889013376e-05
0.0384375,-2.886056973e-05
0.03845833333,-2.176594899e-05
0.03847916667,-1.271368183e-05
0.0385,-6.722792932e-06
0.03852083333,-8.244387573e-06
0.03854166667,-1.370139944e-05
0.0385625,-2.2260072e-05
0.03858333333,-3.048134749e-05
0.03860416667,-3.606647078e-05
0.038625,-3.290721725e-05
0.03864583333,-2.369119466e-05
0.03866666667,-6.484445294e-06
0.0386875,3.116397693e-06
0.03870833333,1.427727966e-05
0.03872916667,1.185382644e-05
0.03875,3.35288405e-06
0.03877083333,-5.921121101e-06
0.03879166667,-6.507843409e-06
0.0388125,-4.596525741e-06
0.03883333333,2.183748848e-06
0.03885416667,3.411532589e-06
0.038875,4.524644737e-06
0.03889583333,-8.376282494e-06
0.03891666667,-1.736957711e-05
0.0389375,-2.740637865e-05
0.03895833333,-3.361916606e-05
0.03897916667,-3.701665264e-05
0.039,-3.750367978e-05
0.03902083333,-3.418960841e-05
0.03904166667,-2.770707943e-05
0.0390625,-1.808024535e-05
0.03908333333,-9.155710359e-06
0.03910416667,-5.91450771e-06
0.039125,-6.567864148e-06
0.03914583333,-6.542567917e-06
0.03916666667,-5.389565558e-06
0.0391875,5.042081284e-06
0.03920833333,1.440150936e-05
0.03922916667,2.030497853e-05
0.03925,1.736009835e-05
0.03927083333,6.759300049e-06
0.03929166667,-7.306111456e-06
0.0393125,-1.355583572e-05
0.03933333333,-1.610219988e-05
0.03935416667,-1.526531923e-05
0.039375,-1.700628854e-05
0.03939583333,-1.783797052e-05
0.03941666667,-1.778589103e-05
0.0394375,-1.152011828e-05
0.03945833333,-4.042997261e-06
0.03947916667,9.243569821e-07
0.0395,-6.166806543e-06
0.03952083333,-1.73876706e-05
0.03954166667,-2.5423642e-05
0.0395625,-2.268927346e-05
0.03958333333,-1.217796671e-05
0.03960416667,5.75310969e-06
0.039625,1.672027793e-05
0.03964583333,1.723185414e-05
0.03966666667,5.07896948e-06
0.0396875,-9.103601769e-06
0.03970833333,-1.946621342e-05
0.03972916667,-1.878233525e-05
0.03975,-2.001274152e-05
0.03977083333,-2.031662916e-05
0.03979166667,-2.300231426e-05
0.0398125,-2.300923916e-05
0.03983333333,-1.710535798e-05
0.03985416667,-1.10743913e-05
0.039875,-7.924302736e-06
0.03989583333,-1.55643902e-05
0.03991666667,-2.953105832e-05
0.0399375,-4.058514241e-05
0.03995833333,-3.986826778e-05
0.03997916667,-2.294206934e-05
0.04,5.685654401e-07
0.04002083333,1.692164551e-05
0.04004166667,2.715970913e-05
0.0400625,2.078628677e-05
0.04008333333,1.292438719e-05
0.04010416667,3.254870308e-06
0.040125,-2.264834166e-06
0.04014583333,-9.140252587e-06
0.04016666667,-1.480049013e-05
0.0401875,-1.983232687e-05
0.04020833333,-1.753411743e-05
0.04022916667,-8.702663763e-06
0.04025,-2.92090067e-06
0.04027083333,-3.884420494e-06
0.04029166667,-1.170968153e-05
0.0403125,-2.75267339e-05
0.04033333333,-3.180312706e-05
0.04035416667,-3.0398729e-05
0.040375,-1.693072227e-05
0.04039583333,-3.967145858e-06
0.04041666667,3.386577646e-06
0.0404375,5.137548669e-06
0.04045833333,4.908204119e-07
0.04047916667,2.415437393e-06
0.0405,1.494230219e-06
0.04052083333,-1.718598241e-06
0.04054166667,-1.353777134e-05
0.0405625,-2.99102212e-05
0.04058333333,-3.700425805e-05
0.04060416667,-3.413836384e-05
0.040625,-2.098968798e-05
0.04064583333,-3.95321149e-06
0.04066666667,2.821556336e-06
0.0406875,-1.209500056e-06
0.04070833333,-1.034553406e-05
0.04072916667,-1.863509351e-05
0.04075,-1.823243656e-05
0.04077083333,-1.3906616e-05
0.04079166667,-1.006095772e-05
0.0408125,-1.144650014e-05
0.04083333333,-1.625658115e-05
0.04085416667,-1.80022198e-05
0.040875,-1.478002469e-05
0.04089583333,-9.988106285e-06
0.04091666667,-7.871928574e-06
0.0409375,-1.382796199e-05
0.04095833333,-2.83221143e-05
0.04097916667,-3.69928166e-05
0.041,-3.978980385e-05
0.04102083333,-2.886553557e-05
0.04104166667,-1.468835671e-05
0.0410625,-7.86194596e-06
0.04108333333,-4.961201284e-06
0.04110416667,-1.034443812e-05
0.041125,-1.055014764e-05
0.04114583333,-8.815844922e-06
0.04116666667,-8.785296814e-06
0.0411875,-1.233871171e-05
0.04120833333,-1.934760985e-05
0.04122916667,-2.540098103e-05
0.04125,-2.464198406e-05
0.04127083333,-1.708678246e-05
0.04129166667,-8.735295523e-06
0.0413125,-5.284543477e-06
0.04133333333,-1.042677286e-05
0.04135416667,-2.11495244e-05
0.041375,-2.925814806e-05
0.04139583333,-3.881003067e-05
0.04141666667,-4.351979442e-05
0.0414375,-5.264833817e-05
0.04145833333,-5.264411448e-05
0.04147916667,-4.887039177e-05
0.0415,-3.655922046e-05
0.04152083333,-2.711405068e-05
0.04154166667,-2.255942854e-05
0.0415625,-3.127296077e-05
0.04158333333,-4.335598351e-05
0.04160416667,-5.088778198e-05
0.041625,-4.164953862e-05
0.04164583333,-2.321619286e-05
0.04166666667,-1.691189254e-06
0.0416875,5.929949111e-06
0.04170833333,4.760443517e-06
0.04172916667,-3.793170436e-06
0.04175,-1.124306345e-05
0.04177083333,-1.405155854e-05
0.04179166667,-1.709088247e-05
0.0418125,-2.497090827e-05
0.04183333333,-3.536908116e-05
0.04185416667,-4.132608956e-05
0.041875,-4.092692689e-05
0.04189583333,-2.685697655e-05
0.04191666667,-1.384652205e-05
0.0419375,-6.674838914e-06
0.04195833333,-1.987124051e-05
0.04197916667,-3.530325557e-05
0.042,-4.550318772e-05
0.04202083333,-3.856001058e-05
0.04204166667,-2.025173853e-05
0.0420625,-4.76889636e-06
0.04208333333,-2.801390792e-06
0.04210416667,-9.201208741e-06
0.042125,-1.997211621e-05
0.04214583333,-1.95544344e-05
0.04216666667,-1.235813852e-05
0.0421875,-6.719177463e-07
0.04220833333,-1.116225349e-06
0.04222916667,-1.044787314e-05
0.04225,-2.344063796e-05
0.04227083333,-2.790908911e-05
0.04229166667,-2.301474524e-05
0.0423125,-1.180424442e-05
0.04233333333,-2.673138852e-06
0.04235416667,-1.463490662e-08
0.042375,-4.913498742e-06
0.04239583333,-1.000822613e-05
0.04241666667,-9.853108168e-06
0.0424375,-9.549397873e-06
0.04245833333,-1.293703735e-05
0.04247916667,-1.910443098e-05
0.0425,-2.174804285e-05
0.04252083333,-1.62692595e-05
0.04254166667,1.101008138e-06
0.0425625,1.839858851e-05
0.04258333333,3.068226943e-05
0.04260416667,2.744257654e-05
0.042625,1.338973834e-05
0.04264583333,-2.520269845e-06
0.04266666667,-1.152426921e-05
0.0426875,-1.180013351e-05
0.04270833333,-1.782761046e-06
0.04272916667,1.150570642e-05
0.04275,2.376240809e-05
0.04277083333,3.089422898e-05
0.04279166667,3.25769397e-05
0.0428125,2.29058096e-05
0.04283333333,1.044374039e-05
0.04285416667,-6.344289886e-06
0.042875,-1.400579276e-05
0.04289583333,-1.096801861e-05
0.04291666667,5.444553153e-06
0.0429375,2.214292181e-05
0.04295833333,2.853175101e-05
0.04297916667,2.477166709e-05
0.043,5.533247077e-06
0.04302083333,-1.638148569e-05
0.04304166667,-3.403558367e-05
0.0430625,-3.692433529e-05
0.04308333333,-3.040957927e-05
0.04310416667,-1.553751463e-05
0.043125,-6.140917321e-07
0.04314583333,1.592497574e-05
0.04316666667,2.827092612e-05
0.0431875,3.269403169e-05
0.04320833333,2.445255814e-05
0.04322916667,1.148334741e-05
0.04325,-3.316195034e-07
0.04327083333,-2.685416803e-06
0.04329166667,6.912899153e-06
0.0433125,2.540271089e-05
0.04333333333,3.611005013e-05
0.04335416667,3.672166713e-05
0.043375,1.572611836e-05
0.04339583333,-5.143281214e-06
0.04341666667,-2.607247006e-05
0.0434375,-3.342262789e-05
0.04345833333,-3.151350029e-05
0.04347916667,-2.384026448e-05
0.0435,-1.725947368e-05
0.04352083333,-7.582856597e-06
0.04354166667,3.521172403e-07
0.0435625,1.094574054e-05
0.04358333333,1.70113417e-05
0.04360416667,1.410709592e-05
0.043625,3.98901193e-06
0.04364583333,-3.576102245e-06
0.04366666667,-5.140150279e-06
0.0436875,3.190582447e-06
0.04370833333,1.684601739e-05
0.04372916667,2.611110904e-05
0.04375,2.828292418e-05
0.04377083333,1.977561988e-05
0.04379166667,1.026860173e-05
0.0438125,8.212309694e-06
0.04383333333,1.029795203e-05
0.04385416667,8.905733011e-06
0.043875,6.236104582e-06
0.04389583333,-1.110069206e-06
0.04391666667,-1.156030339e-05
0.0439375,-1.596650327e-05
0.04395833333,-1.684649214e-05
0.04397916667,-1.303424142e-05
0.044,-9.398549082e-06
0.04402083333,-1.165785397e-05
0.04404166667,-1.630335464e-05
0.0440625,-1.609326864e-05
0.04408333333,-5.145918294e-06
0.04410416667,5.10488735e-06
0.044125,1.407641048e-05
0.04414583333,1.850094122e-05
0.04416666667,2.177759961e-05
0.0441875,3.065647252e-05
0.04420833333,4.805070785e-05
0.04422916667,6.554437277e-05
0.04425,7.434360305e-05
0.04427083333,6.576691521e-05
0.04429166667,4.458207695e-05
0.0443125,2.128352935e-05
0.04433333333,7.12970359e-06
0.04435416667,9.563962521e-06
0.044375,1.819198042e-05
0.04439583333,3.134539656e-05
0.04441666667,3.410800855e-05
0.0444375,3.221723091e-05
0.04445833333,2.51049496e-05
0.04447916667,2.375050099e-05
0.0445,2.35203006e-05
0.04452083333,2.802763629e-05
0.04454166667,3.053119872e-05
0.0445625,3.515470598e-05
0.04458333333,4.383832129e-05
0.04460416667,5.34173887e-05
0.044625,6.281676178e-05
0.04464583333,6.568107347e-05
0.04466666667,5.623819015e-05
0.0446875,4.185891157e-05
0.04470833333,2.558280357e-05
0.04472916667,2.123375452e-05
0.04475,2.885850336e-05
0.04477083333,4.362789332e-05
0.04479166667,5.540066559e-05
0.0448125,6.136066804e-05
0.04483333333,5.429415251e-05
0.04485416667,4.559670924e-05
0.044875,4.289894423e-05
0.04489583333,4.567114593e-05
0.04491666667,5.012685506e-05
0.0449375,5.343172597e-05
0.04495833333,4.953024109e-05
0.04497916667,4.472496948e-05
0.045,3.880738586e-05
0.04502083333,3.721525354e-05
0.04504166667,4.001490015e-05
0.0450625,4.45182086e-05
0.04508333333,4.637803795e-05
0.04510416667,4.846881347e-05
0.045125,4.829253157e-05
0.04514583333,4.973269097e-05
0.04516666667,5.608170613e-05
0.0451875,5.922061609e-05
0.04520833333,6.370616029e-05
0.04522916667,6.284438859e-05
0.04525,5.953505024e-05
0.04527083333,5.545186286e-05
0.04529166667,5.018485172e-05
0.0453125,4.698675184e-05
0.04533333333,4.370640818e-05
0.04535416667,4.049670679e-05
0.045375,3.760523759e-05
0.04539583333,3.511553587e-05
0.04541666667,3.201288564e-05
0.0454375,3.185937021e-05
0.04545833333,3.377766552e-05
0.04547916667,3.900468073e-05
0.0455,4.24174832e-05
0.04552083333,4.33324567e-05
0.04554166667,4.123152394e-05
0.0455625,3.650160943e-05
0.04558333333,3.201611617e-05
0.04560416667,2.884496644e-05
0.045625,2.680177568e-05
0.04564583333,2.516345194e-05
0.04566666667,2.246061194e-05
0.0456875,2.183153993e-05
0.04570833333,1.951779268e-05
0.04572916667,2.416380084e-05
0.04575,2.92564855e-05
0.04577083333,3.552244016e-05
0.04579166667,3.920441668e-05
0.0458125,3.585028026e-05
0.04583333333,2.654163291e-05
0.04585416667,2.180273805e-05
0.045875,2.037912236e-05
0.04589583333,2.898860839e-05
0.04591666667,4.148262815e-05
0.0459375,5.097596295e-05
0.04595833333,4.837257075e-05
0.04597916667,4.031116259e-05
0.046,2.806027624e-05
0.04602083333,2.287648931e-05
0.04604166667,2.733734618e-05
0.0460625,3.90733876e-05
0.04608333333,4.874001024e-05
0.04610416667,5.611733286e-05
0.046125,5.782017979e-05
0.04614583333,5.859980229e-05
0.04616666667,5.6373603e-05
0.0461875,5.235824938e-05
0.04620833333,4.474157686e-05
0.04622916667,3.717441723e-05
0.04625,3.094938438e-05
0.04627083333,3.118423047e-05
0.04629166667,3.914810441e-05
0.0463125,4.94323649e-05
0.04633333333,5.512092685e-05
0.04635416667,5.360412979e-05
0.046375,4.302333036e-05
0.04639583333,3.55297052e-05
0.04641666667,3.251740418e-05
0.0464375,3.970783291e-05
0.04645833333,4.882363282e-05
0.04647916667,5.666336801e-05
0.0465,5.990352292e-05
0.04652083333,5.961160787e-05
0.04654166667,5.825879271e-05
0.0465625,6.244281394e-05
0.04658333333,6.616735482e-05
0.04660416667,6.985920481e-05
0.046625,7.146102871e-05
0.04664583333,7.34297937e-05
0.04666666667,7.714214735e-05
0.0466875,8.348293341e-05
0.04670833333,8.730673289e-05
0.04672916667,8.533794608e-05
0.04675,7.809355156e-05
0.04677083333,6.947889779e-05
0.04679166667,6.453183596e-05
0.0468125,6.690125156e-05
0.04683333333,7.516797632e-05
0.04685416667,8.253192937e-05
0.046875,8.634822007e-05
0.04689583333,8.728874673e-05
0.04691666667,8.592155064e-05
0.0469375,8.721684571e-05
0.04695833333,8.989061462e-05
0.04697916667,9.154499276e-05
0.047,9.06728601e-05
0.04702083333,8.818673086e-05
0.04704166667,8.800263458e-05
0.0470625,9.301018144e-05
0.04708333333,9.785915609e-05
0.04710416667,0.0001006412931
0.047125,9.878640412e-05
0.04714583333,9.24267224e-05
0.04716666667,8.845562115e-05
0.0471875,8.964332665e-05
0.04720833333,9.234288882e-05
0.04722916667,9.528911323e-05
0.04725,9.11498646e-05
0.04727083333,8.528545732e-05
0.04729166667,8.07278484e-05
0.0473125,8.449216693e-05
0.04733333333,9.170587873e-05
0.04735416667,9.689258877e-05
0.047375,9.520025924e-05
0.04739583333,8.663372864e-05
0.04741666667,7.640366675e-05
0.0474375,7.32936096e-05
0.04745833333,7.424788055e-05
0.04747916667,8.212195826e-05
0.0475,8.622959285e-05
0.04752083333,8.914146747e-05
0.04754166667,9.061855962e-05
0.0475625,9.735194908e-05
0.04758333333,0.0001085199328
0.04760416667,0.0001173428464
0.047625,0.000117728152
0.04764583333,0.0001069386781
0.04766666667,9.073066758e-05
0.0476875,8.070001059e-05
0.04770833333,8.261806215e-05
0.04772916667,9.461176523e-05
0.04775,0.0001029338309
0.04777083333,0.000106582811
0.04779166667,9.828762995e-05
0.0478125,8.72245364e-05
0.04783333333,7.698689296e-05
0.04785416667,7.390265091e-05
0.047875,7.267554611e-05
0.04789583333,7.162874681e-05
0.04791666667,6.672840391e-05
0.0479375,6.584604853e-05
0.04795833333,6.859352288e-05
0.04797916667,7.842858031e-05
0.048,8.265567885e-05
0.04802083333,8.373265882e-05
0.04804166667,7.515842299e-05
0.0480625,6.907987699e-05
0.04808333333,6.877169653e-05
0.04810416667,7.781926251e-05
0.048125,9.115332796e-05
0.04814583333,9.908848733e-05
0.04816666667,9.860768478e-05
0.0481875,9.071276872e-05
0.04820833333,8.248347149e-05
0.04822916667,8.083736611e-05
0.04825,8.381233056e-05
0.04827083333,9.092101391e-05
0.04829166667,9.424742166e-05
0.0483125,9.54286952e-05
0.04833333333,9.488215437e-05
0.04835416667,9.862566367e-05
0.048375,0.0001029122068
0.04839583333,0.0001048074992
0.04841666667,0.0001031361971
0.0484375,9.728439181e-05
0.04845833333,9.399432747e-05
0.04847916667,9.755999054e-05
0.0485,0.000106863612
0.04852083333,0.0001155834179
0.04854166667,0.0001194356082
0.0485625,0.0001158325831
0.04858333333,0.0001085234035
0.04860416667,0.0001041809155
0.048625,0.0001053468586
0.04864583333,0.0001130135352
0.04866666667,0.0001208312169
0.0486875,0.0001257622498
0.04870833333,0.0001292692032
0.04872916667,0.0001318189024
0.04875,0.0001345959754
0.04877083333,0.000136546485
0.04879166667,0.0001323724427
0.0488125,0.0001267170446
0.04883333333,0.0001171291733
0.04885416667,0.0001114002444
0.048875,0.0001132600519
0.04889583333,0.0001210292685
0.04891666667,0.0001292289817
0.0489375,0.000133207679
0.04895833333,0.0001300937292
0.04897916667,0.000125476392
0.049,0.0001178356979
0.04902083333,0.0001162118861
0.04904166667,0.00011457855
0.0490625,0.0001177948507
0.04908333333,0.0001222482679
0.04910416667,0.000129613094
0.049125,0.0001387030788
0.04914583333,0.000149444415
0.04916666667,0.0001585051214
0.0491875,0.0001645367302
0.04920833333,0.0001619694958
0.04922916667,0.0001565037819
0.04925,0.0001492309821
0.04927083333,0.0001463690714
0.04929166667,0.0001450706477
0.0493125,0.0001482286898
0.04933333333,0.000150022257
0.04935416667,0.000151588174
0.049375,0.0001494442695
0.04939583333,0.0001470413263
0.04941666667,0.0001434649748
0.0494375,0.0001426973031
0.04945833333,0.0001407426462
0.04947916667,0.0001399143657
0.0495,0.0001385834621
0.04952083333,0.0001391824044
0.04954166667,0.0001383213967
0.0495625,0.0001386877557
0.04958333333,0.0001370758109
0.04960416667,0.0001370226091
0.049625,0.0001368617959
0.04964583333,0.0001380578469
0.04966666667,0.0001378239685
0.0496875,0.0001375018182
0.04970833333,0.000136905961
0.04972916667,0.0001383064955
0.04975,0.0001403714996
0.04977083333,0.000140878401
0.04979166667,0.0001376236178
0.0498125,0.0001326508791
0.04983333333,0.0001252190414
0.04985416667,0.0001231670904
0.049875,0.000125954859
0.04989583333,0.0001334262633
0.04991666667,0.0001411007834
0.0499375,0.0001426038216
0.04995833333,0.000138294592
0.04997916667,0.0001320936572
0.05,0.0001438051841
0.05002083333,0.0001484809327
0.05004166667,0.0001577164949
0.0500625,0.0001686860924
0.05008333333,0.0001772495743
0.05010416667,0.0001826201769
0.050125,0.0001846284576
0.05014583333,0.0001879097399
0.05016666667,0.0001895577298
0.0501875,0.0001868671243
0.05020833333,0.0001793397096
0.05022916667,0.0001693165541
0.05025,0.0001604161807
0.05027083333,0.0001593535853
0.05029166667,0.0001642217248
0.0503125,0.0001728641801
0.05033333333,0.000178399554
0.05035416667,0.0001766295463
0.050375,0.0001687474869
0.05039583333,0.0001626566809
0.05041666667,0.0001606782607
0.0504375,0.000165063364
0.05045833333,0.0001705449977
0.05047916667,0.0001758568542
0.0505,0.0001759470761
0.05052083333,0.0001743435423
0.05054166667,0.0001699692511
0.0505625,0.0001676079846
0.05058333333,0.0001632111234
0.05060416667,0.0001594191708
0.050625,0.0001555270719
0.05064583333,0.0001559442753
0.05066666667,0.0001613411878
0.0506875,0.000173054781
0.05070833333,0.000181872354
0.05072916667,0.0001872843131
0.05075,0.0001827053784
0.05077083333,0.0001767437061
0.05079166667,0.000170201296
0.0508125,0.0001655596134
0.05083333333,0.0001604448044
0.05085416667,0.0001573794143
0.050875,0.0001559892553
0.05089583333,0.0001612343767
0.05091666667,0.0001701473229
0.0509375,0.000183603508
0.05095833333,0.0001948606805
0.05097916667,0.0002003961126
0.051,0.0001969235309
0.05102083333,0.0001905241079
0.05104166667,0.0001857491152
0.0510625,0.0001869772532
0.05108333333,0.0001901682117
0.05110416667,0.0001918188209
0.051125,0.0001870283158
0.05114583333,0.0001781096216
0.05116666667,0.0001710755168
0.0511875,0.0001724741887
0.05120833333,0.0001805078064
0.05122916667,0.0001904320234
0.05125,0.0001951837767
0.05127083333,0.0001934925967
0.05129166667,0.0001909593702
0.0513125,0.0001895671303
0.05133333333,0.0001928642305
0.05135416667,0.0001960119844
0.051375,0.0001947903947
0.05139583333,0.0001889324922
0.05141666667,0.0001806903892
0.0514375,0.0001794757263
0.05145833333,0.000186309393
0.05147916667,0.000197947069
0.0515,0.0002055732184
0.05152083333,0.0002057042584
0.05154166667,0.0001986023562
0.0515625,0.0001928287529
0.05158333333,0.0001958760113
0.05160416667,0.0002043753775
0.051625,0.000215623033
0.05164583333,0.0002231937542
0.05166666667,0.0002265860094
0.0516875,0.000230012316
0.05170833333,0.0002349963615
0.05172916667,0.0002436109644
0.05175,0.0002471596235
0.05177083333,0.0002443239209
0.05179166667,0.0002326169633
0.0518125,0.0002228012308
0.05183333333,0.0002215831191
0.05185416667,0.0002302059729
0.051875,0.0002441478427
0.05189583333,0.00025563495
0.05191666667,0.0002599779982
0.0519375,0.0002591690863
0.05195833333,0.0002535801032
0.05197916667,0.0002530715719
0.052,0.0002522376308
0.05202083333,0.0002501105191
0.05204166667,0.0002432995243
0.0520625,0.0002341619984
0.05208333333,0.0002272037091
0.05210416667,0.0002286621166
0.052125,0.000235953994
0.05214583333,0.0002454690693
0.05216666667,0.0002501120325
0.0521875,0.0002501093259
0.05220833333,0.000247249729
0.05222916667,0.0002461423865
0.05225,0.0002439850359
0.05227083333,0.0002438117808
0.05229166667,0.0002390054869
0.0523125,0.0002327532275
0.05233333333,0.0002246191725
0.05235416667,0.0002207719954
0.052375,0.0002225482167
0.05239583333,0.0002273418213
0.05241666667,0.0002323001681
0.0524375,0.0002352728188
0.05245833333,0.000237670698
0.05247916667,0.0002415152412
0.0525,0.0002483649296
0.05252083333,0.0002544967283
0.05254166667,0.0002557624539
0.0525625,0.0002521887072
0.05258333333,0.0002454318746
0.05260416667,0.0002385348489
0.052625,0.0002323364024
0.05264583333,0.0002267963864
0.05266666667,0.0002214599663
0.0526875,0.0002169563231
0.05270833333,0.0002167098282
0.05272916667,0.0002197915892
0.05275,0.0002289192344
0.05277083333,0.0002376000775
0.05279166667,0.0002399884106
0.0528125,0.0002339963394
0.05283333333,0.0002190222149
0.05285416667,0.0002030698233
0.052875,0.0001913236338
0.05289583333,0.0001840118493
0.05291666667,0.0001821629412
0.0529375,0.0001815143623
0.05295833333,0.0001799279125
0.05297916667,0.0001811861584
0.053,0.0001855082519
0.05302083333,0.0001924993267
0.05304166667,0.0001992468024
0.0530625,0.0002005508286
0.05308333333,0.0001974418701
0.05310416667,0.0001910011051
0.053125,0.0001827165834
0.05314583333,0.0001756336424
0.05316666667,0.0001669384656
0.0531875,0.000162182725
0.05320833333,0.0001602900447
0.05322916667,0.0001620091498
0.05325,0.0001690089557
0.05327083333,0.0001787792717
0.05329166667,0.000187276848
0.0533125,0.0001939078502
0.05333333333,0.0001950781734
0.05335416667,0.0001917709014
0.053375,0.0001845058869
0.05339583333,0.0001745565096
0.05341666667,0.0001624789293
0.0534375,0.0001534268958
0.05345833333,0.0001484720997
0.05347916667,0.0001527986024
0.0535,0.0001627946767
0.05352083333,0.0001746267371
0.05354166667,0.0001843452337
0.0535625,0.0001901071373
0.05358333333,0.0001902966178
0.05360416667,0.0001886833052
0.053625,0.000184818462
0.05364583333,0.0001795948774
0.05366666667,0.0001693290833
0.0536875,0.000158689465
0.05370833333,0.0001486352412
0.05372916667,0.0001443943183
0.05375,0.0001459205523
0.05377083333,0.0001496120385
0.05379166667,0.0001537687785
0.0538125,0.0001585449645
0.05383333333,0.0001625543082
0.05385416667,0.0001659319387
0.053875,0.0001674651285
0.05389583333,0.0001663285366
0.05391666667,0.0001598462986
0.0539375,0.0001507973939
0.05395833333,0.0001425518858
0.05397916667,0.0001412480487
0.054,0.0001423832582
0.05402083333,0.0001466017857
0.05404166667,0.0001523712417
0.0540625,0.0001557463256
0.05408333333,0.0001622436685
0.05410416667,0.0001716226834
0.054125,0.0001845799561
0.05414583333,0.0001960511145
0.05416666667,0.0001994007762
0.0541875,0.000194957669
0.05420833333,0.0001878016628
0.05422916667,0.0001849306427
0.05425,0.0001895362366
0.05427083333,0.0001984710834
0.05429166667,0.0002058847458
0.0543125,0.0002049775794
0.05433333333,0.0002006487775
0.05435416667,0.0001965309202
0.054375,0.0001967322314
0.05439583333,0.0002026273578
0.05441666667,0.0002089730551
0.0544375,0.0002095667733
0.05445833333,0.0002001974062
0.05447916667,0.0001872427965
0.0545,0.0001753705146
0.05452083333,0.0001731655939
0.05454166667,0.0001784283522
0.0545625,0.0001824700157
0.05458333333,0.0001801275066
0.05460416667,0.0001705411414
0.054625,0.000159064366
0.05464583333,0.0001516819466
0.05466666667,0.0001502690866
0.0546875,0.0001546368585
0.05470833333,0.0001557325159
0.05472916667,0.0001516514603
0.05475,0.0001406625815
0.05477083333,0.0001291047665
0.05479166667,0.0001234496012
0.0548125,0.0001231958013
0.05483333333,0.0001272960508
0.05485416667,0.0001310964581
0.054875,0.0001305019541
0.05489583333,0.0001244781452
0.05491666667,0.000115638577
0.0549375,0.0001088309
0.05495833333,0.0001065931283
0.05497916667,0.000107214204
0.055,0.0001046518446
0.05502083333,9.810829215e-05
0.05504166667,8.824734687e-05
0.0550625,8.083163266e-05
0.05508333333,8.008599252e-05
0.05510416667,8.562133735e-05
0.055125,9.335146751e-05
0.05514583333,9.702036186e-05
0.05516666667,9.433506057e-05
0.0551875,8.78722276e-05
0.05520833333,8.083222929e-05
0.05522916667,7.954070315e-05
0.05525,8.005811833e-05
0.05527083333,7.936433394e-05
0.05529166667,7.183803973e-05
0.0553125,5.654972483e-05
0.05533333333,4.142502803e-05
0.05535416667,3.146113522e-05
0.055375,3.167798423e-05
0.05539583333,3.816957906e-05
0.05541666667,4.472097498e-05
0.0554375,4.70149098e-05
0.05545833333,4.417839227e-05
0.05547916667,3.982520866e-05
0.0555,3.528582602e-05
0.05552083333,2.754627349e-05
0.05554166667,1.5100366e-05
0.0555625,-8.596543921e-07
0.05558333333,-1.810789945e-05
0.05560416667,-2.861508074e-05
0.055625,-3.016135634e-05
0.05564583333,-2.479663817e-05
0.05566666667,-1.899696144e-05
0.0556875,-1.908150989e-05
0.05570833333,-2.193404725e-05
0.05572916667,-2.528627374e-05
0.05575,-2.839279659e-05
0.05577083333,-2.978435623e-05
0.05579166667,-3.438744898e-05
0.0558125,-4.381545295e-05
0.05583333333,-5.651136598e-05
0.05585416667,-6.576182204e-05
0.055875,-6.553079584e-05
0.05589583333,-5.597393465e-05
0.05591666667,-4.421354606e-05
0.0559375,-3.776521771e-05
0.05595833333,-3.656501212e-05
0.05597916667,-3.782542626e-05
0.056,-3.624473902e-05
0.05602083333,-3.193312295e-05
0.05604166667,-2.93504927e-05
0.0560625,-3.220287181e-05
0.05608333333,-4.312307283e-05
0.05610416667,-5.40215442e-05
0.056125,-5.92951219e-05
0.05614583333,-5.5320721e-05
0.05616666667,-4.721731966e-05
0.0561875,-4.395388532e-05
0.05620833333,-4.843598435e-05
0.05622916667,-5.879758828e-05
0.05625,-6.971175753e-05
0.05627083333,-7.667041791e-05
0.05629166667,-7.872683636e-05
0.0563125,-8.222442557e-05
0.05633333333,-9.17833022e-05
0.05635416667,-0.0001073088861
0.056375,-0.0001221156999
0.05639583333,-0.0001272175141
0.05641666667,-0.0001277546544
0.0564375,-0.0001280911238
0.05645833333,-0.0001350044331
0.05647916667,-0.0001506335975
0.0565,-0.0001685620518
0.05652083333,-0.0001845424849
0.05654166667,-0.0001927244593
0.0565625,-0.0001980004163
0.05658333333,-0.000204520009
0.05660416667,-0.0002105391031
0.056625,-0.0002151468216
0.05664583333,-0.0002121922444
0.05666666667,-0.0002047421294
0.0566875,-0.000195971108
0.05670833333,-0.0001922113879
0.05672916667,-0.000196845911
0.05675,-0.0002053568314
0.05677083333,-0.0002160380536
0.05679166667,-0.0002252355771
0.0568125,-0.0002306544338
0.05683333333,-0.0002342187072
0.05685416667,-0.0002354333992
0.056875,-0.00023430289
0.05689583333,-0.0002316689497
0.05691666667,-0.0002260772017
0.0569375,-0.0002211311657
0.05695833333,-0.0002196928835
0.05697916667,-0.0002232631523
0.057,-0.0002318769402
0.05702083333,-0.0002426091669
0.05704166667,-0.0002515373344
0.0570625,-0.0002598548308
0.05708333333,-0.0002685109212
0.05710416667,-0.0002787028789
0.057125,-0.0002886016155
0.05714583333,-0.0002950017806
0.05716666667,-0.0002974999952
0.0571875,-0.0002965074091
0.05720833333,-0.000299315725
0.05722916667,-0.0003044422483
0.05725,-0.0003101341426
0.05727083333,-0.0003153169237
0.05729166667,-0.0003195205645
0.0573125,-0.0003247083805
0.05733333333,-0.0003350010084
0.05735416667,-0.0003510541283
0.057375,-0.0003691361344
0.05739583333,-0.0003833041992
0.05741666667,-0.0003894985421
0.0574375,-0.0003883325553
0.05745833333,-0.0003858424898
0.05747916667,-0.0003864017199
0.0575,-0.0003913314722
0.05752083333,-0.0003945625795
0.05754166667,-0.0003961401526
0.0575625,-0.0003937716247
0.05758333333,-0.0003942095791
0.05760416667,-0.0004014477308
0.057625,-0.0004187874438
0.05764583333,-0.0004402929335
0.05766666667,-0.0004558465444
0.0576875,-0.0004609457101
0.05770833333,-0.0004541476956
0.05772916667,-0.0004471960128
0.05775,-0.0004454661102
0.05777083333,-0.000450510357
0.05779166667,-0.0004604608112
0.0578125,-0.0004668214533
0.05783333333,-0.0004689705966
0.05785416667,-0.0004692185321
0.057875,-0.0004726328189
0.05789583333,-0.0004826015211
0.05791666667,-0.0004970851587
0.0579375,-0.0005103773437
0.05795833333,-0.0005179595901
0.05797916667,-0.0005198032595
0.058,-0.0005178842694
0.05802083333,-0.0005240364699
0.05804166667,-0.0005389481666
0.0580625,-0.0005603184109
0.05808333333,-0.0005794780445
0.05810416667,-0.00058701745
0.058125,-0.0005841503735
0.05814583333,-0.0005753249861
0.05816666667,-0.0005708363024
0.0581875,-0.000575859216
0.05820833333,-0.000589673582
0.05822916667,-0.0006078563747
0.05825,-0.0006232036394
0.05827083333,-0.0006312374026
0.05829166667,-0.0006344037247
0.0583125,-0.0006414229865
0.05833333333,-0.0006505114143
0.05835416667,-0.0006603923393
0.058375,-0.0006631942815
0.05839583333,-0.0006550678518
0.05841666667,-0.0006389385671
0.0584375,-0.0006190925487
0.05845833333,-0.0006078010774
0.05847916667,-0.0006081369938
0.0585,-0.0006176573806
0.05852083333,-0.0006311454927
0.05854166667,-0.0006387282046
0.0585625,-0.000639732345
0.05858333333,-0.0006379167316
0.05860416667,-0.0006361434935
0.058625,-0.000638019992
0.05864583333,-0.0006380889681
0.05866666667,-0.0006337224622
0.0586875,-0.0006208328996
0.05870833333,-0.0006035034312
0.05872916667,-0.0005865544081
0.05875,-0.0005779522471
0.05877083333,-0.0005775004975
0.05879166667,-0.0005819005892
0.0588125,-0.0005894076894
0.05883333333,-0.0005947258323
0.05885416667,-0.0006014965475
0.058875,-0.0006097678561
0.05889583333,-0.0006185288075
0.05891666667,-0.0006251403247
0.0589375,-0.0006245385157
0.05895833333,-0.0006206427934
0.05897916667,-0.0006113930722
0.059,-0.0005996903055
0.05902083333,-0.0005862103426
0.05904166667,-0.0005708265235
0.0590625,-0.0005562423612
0.05908333333,-0.0005489167525
0.05910416667,-0.0005504253204
0.059125,-0.0005623179022
0.05914583333,-0.0005806749687
0.05916666667,-0.0005967104225
0.0591875,-0.000606133719
0.05920833333,-0.0006019568536
0.05922916667,-0.0005935234367
0.05925,-0.0005866904394
0.05927083333,-0.0005818919162
0.05929166667,-0.0005749204429
0.0593125,-0.0005590557121
0.05933333333,-0.0005379947834
0.05935416667,-0.000522805145
0.059375,-0.0005241387989
0.05939583333,-0.0005466958974
0.05941666667,-0.0005795237957
0.0594375,-0.000610156334
0.05945833333,-0.0006276415079
0.05947916667,-0.0006335149519
0.0595,-0.0006352404598
0.05952083333,-0.0006426007603
0.05954166667,-0.0006543964264
0.0595625,-0.0006633299054
0.05958333333,-0.0006615282618
0.05960416667,-0.0006515941932
0.059625,-0.0006467233761
0.05964583333,-0.0006576721789
0.05966666667,-0.000688355125
0.0596875,-0.0007304275641
0.05970833333,-0.0007677178946
0.05972916667,-0.0007934263558
0.05975,-0.0008087579627
0.05977083333,-0.000822397822
0.05979166667,-0.0008429116569
0.0598125,-0.0008638587897
0.05983333333,-0.0008778052288
0.05985416667,-0.0008801619988
0.059875,-0.0008724730578
0.05989583333,-0.000868353236
0.05991666667,-0.0008737421012
0.0599375,-0.0008963014116
0.05995833333,-0.0009275976918
0.05997916667,-0.0009538091836
0.06,-0.0009810060728
0.06002083333,-0.0009976089932
0.06004166667,-0.001019689254
0.0600625,-0.001048722654
0.06008333333,-0.001076958841
0.06010416667,-0.001094926381
0.060125,-0.001095864922
0.06014583333,-0.001082608709
0.06016666667,-0.001069652033
0.0601875,-0.001063850708
0.06020833333,-0.001072486746
0.06022916667,-0.001084489864
0.06025,-0.001091136364
0.06027083333,-0.00109660998
0.06029166667,-0.001104447176
0.0603125,-0.001124555361
0.06033333333,-0.001152323326
0.06035416667,-0.001178313629
0.060375,-0.001193417003
0.06039583333,-0.001189936884
0.06041666667,-0.001172141288
0.0604375,-0.00115091051
0.06045833333,-0.001133450773
0.06047916667,-0.001124305534
0.0605,-0.001123409718
0.06052083333,-0.00112698169
0.06054166667,-0.001135045663
0.0605625,-0.001148077776
0.06058333333,-0.001168541261
0.06060416667,-0.00119166472
0.060625,-0.001207690919
0.06064583333,-0.001215714496
0.06066666667,-0.001210483839
0.0606875,-0.001201388426
0.06070833333,-0.001188220573
0.06072916667,-0.001173028839
0.06075,-0.001161713386
0.06077083333,-0.001156577491
0.06079166667,-0.001161986147
0.0608125,-0.001174912788
0.06083333333,-0.001192643074
0.06085416667,-0.001207030262
0.060875,-0.001212087926
0.06089583333,-0.001210169517
0.06091666667,-0.001202710788
0.0609375,-0.001197346253
0.06095833333,-0.001193642733
0.06097916667,-0.001189077273
0.061,-0.001177026425
0.06102083333,-0.001160571584
0.06104166667,-0.001148347626
0.0610625,-0.00114744145
0.06108333333,-0.001159411506
0.06110416667,-0.001176770777
0.061125,-0.001185677713
0.06114583333,-0.001180800144
0.06116666667,-0.001168301911
0.0611875,-0.001156374929
0.06120833333,-0.001155558508
0.06122916667,-0.001163719571
0.06125,-0.001174538629
0.06127083333,-0.001180949272
0.06129166667,-0.001180611667
0.0613125,-0.001180120045
0.06133333333,-0.001189305447
0.06135416667,-0.001210829243
0.061375,-0.001236129785
0.06139583333,-0.001254751929
0.06141666667,-0.001259848708
0.0614375,-0.001254221657
0.06145833333,-0.001250733389
0.06147916667,-0.00125537836
0.0615,-0.001270886278
0.06152083333,-0.001287231455
0.06154166667,-0.001295532915
0.0615625,-0.00129342929
0.06158333333,-0.001285704435
0.06160416667,-0.001285883249
0.061625,-0.001297349459
0.06164583333,-0.001316741109
0.06166666667,-0.001335367211
0.0616875,-0.001345204655
0.06170833333,-0.001345635392
0.06172916667,-0.001343842596
0.06175,-0.00134804938
0.06177083333,-0.00135700847
0.06179166667,-0.001365939737
0.0618125,-0.001368046156
0.06183333333,-0.00135959161
0.06185416667,-0.00134625996
0.061875,-0.001336644287
0.06189583333,-0.001337631838
0.06191666667,-0.001350823906
0.0619375,-0.001371287624
0.06195833333,-0.001388667501
0.06197916667,-0.001397936721
0.062,-0.001404288574
0.06202083333,-0.001410565572
0.06204166667,-0.001415736275
0.0620625,-0.001422776375
0.06208333333,-0.001424600603
0.06210416667,-0.001420109533
0.062125,-0.001410308876
0.06214583333,-0.001400730922
0.06216666667,-0.001399374218
0.0621875,-0.001404641778
0.06220833333,-0.00141194195
0.06222916667,-0.001417857478
0.06225,-0.001416357001
0.06227083333,-0.001408096519
0.06229166667,-0.001390191028
0.0623125,-0.001368013094
0.06233333333,-0.001345937955
0.06235416667,-0.00132724084
0.062375,-0.001311906264
0.06239583333,-0.001298266347
0.06241666667,-0.001288596075
0.0624375,-0.001282565878
0.06245833333,-0.001279441291
0.06247916667,-0.001276516938
0.0625,-0.001274527051
0.06252083333,-0.001272484194
0.06254166667,-0.001266643172
0.0625625,-0.001254455769
0.06258333333,-0.001232164796
0.06260416667,-0.001201503444
0.062625,-0.001171569806
0.06264583333,-0.001147492323
0.06266666667,-0.001130262972
0.0626875,-0.001116522355
0.06270833333,-0.001102869515
0.06272916667,-0.001084871939
0.06275,-0.001067027915
0.06277083333,-0.001054443652
0.06279166667,-0.001052110456
0.0628125,-0.001053688582
0.06283333333,-0.001051426516
0.06285416667,-0.001040007686
0.062875,-0.001015291084
0.06289583333,-0.0009852674557
0.06291666667,-0.0009554100106
0.0629375,-0.000928342517
0.06295833333,-0.0009031965747
0.06297916667,-0.0008759492775
0.063,-0.0008462275146
0.06302083333,-0.0008195250994
0.06304166667,-0.0008018034277
0.0630625,-0.0007958249771
0.06308333333,-0.0007974767359
0.06310416667,-0.0008003222174
0.063125,-0.0007951871376
0.06314583333,-0.0007814620622
0.06316666667,-0.0007623119163
0.0631875,-0.0007414937136
0.06320833333,-0.0007177189109
0.06322916667,-0.0006921171444
0.06325,-0.0006643591332
0.06327083333,-0.0006425189204
0.06329166667,-0.0006333235651
0.0633125,-0.0006364821456
0.06333333333,-0.000648075249
0.06335416667,-0.0006645550602
0.063375,-0.000675362011
0.06339583333,-0.000677448872
0.06341666667,-0.0006767613813
0.0634375,-0.000672856695
0.06345833333,-0.0006606262759
0.06347916667,-0.0006352376076
0.0635,-0.0006002247683
0.06352083333,-0.000566508621
0.06354166667,-0.0005439190427
0.0635625,-0.0005403841496
0.06358333333,-0.000552262878
0.06360416667,-0.0005698461318
0.063625,-0.0005863300757
0.06364583333,-0.0005958572729
0.06366666667,-0.0006047896459
0.0636875,-0.0006157904281
0.06370833333,-0.0006253701285
0.06372916667,-0.0006254729233
0.06375,-0.0006086323992
0.06377083333,-0.0005765176611
0.06379166667,-0.000542387017
0.0638125,-0.0005168971256
0.06383333333,-0.0005053548957
0.06385416667,-0.0005037937663
0.063875,-0.0005054488429
0.06389583333,-0.0005070358748
0.06391666667,-0.0005093545187
0.0639375,-0.0005168726202
0.06395833333,-0.0005342075601
0.06397916667,-0.0005523854052
0.064,-0.0005620901356
0.06402083333,-0.0005566776381
0.06404166667,-0.0005387103301
0.0640625,-0.000516697648
0.06408333333,-0.0004964242689
0.06410416667,-0.00047648701
0.064125,-0.0004549192963
0.06414583333,-0.0004245557939
0.06416666667,-0.0003921707394
0.0641875,-0.0003666856792
0.06420833333,-0.0003527622612
0.06422916667,-0.0003504950437
0.06425,-0.0003479188599
0.06427083333,-0.0003371440107
0.06429166667,-0.000317868602
0.0643125,-0.0002969630295
0.06433333333,-0.0002807388955
0.06435416667,-0.0002663804044
0.064375,-0.0002467441373
0.06439583333,-0.0002172687527
0.06441666667,-0.0001761016611
0.0644375,-0.0001363825286
0.06445833333,-0.0001058086636
0.06447916667,-8.766281826e-05
0.0645,-7.477744657e-05
0.06452083333,-5.584010069e-05
0.06454166667,-2.811013655e-05
0.0645625,5.573756425e-06
0.06458333333,3.79017074e-05
0.06460416667,6.28254129e-05
0.064625,8.075209189e-05
0.06464583333,9.665435209e-05
0.06466666667,0.0001176595688
0.0646875,0.0001436772727
0.06470833333,0.0001700915309
0.06472916667,0.0001904873789
0.06475,0.0002048867464
0.06477083333,0.0002167208004
0.06479166667,0.0002314465673
0.0648125,0.0002530604834
0.06483333333,0.0002781341027
0.06485416667,0.0003033227986
0.064875,0.0003275380586
0.06489583333,0.0003506950161
0.06491666667,0.0003731040342
0.0649375,0.0003943703778
0.06495833333,0.0004180329561
0.06497916667,0.0004438793403
0.065,0.0004706893524
0.06502083333,0.0004961526138
0.06504166667,0.0005158914137
0.0650625,0.000530516787
0.06508333333,0.0005416009808
0.06510416667,0.0005507741007
0.065125,0.0005634193658
0.06514583333,0.0005808128626
0.06516666667,0.0006017011474
0.0651875,0.0006218017661
0.06520833333,0.0006388947368
0.06522916667,0.0006576420274
0.06525,0.0006776805385
0.06527083333,0.0007021895726
0.06529166667,0.0007311082445
0.0653125,0.0007571788155
0.06533333333,0.0007751717931
0.06535416667,0.000783895317
0.065375,0.000788214209
0.06539583333,0.0007933185552
0.06541666667,0.0008031112957
0.0654375,0.0008193907561
0.06545833333,0.0008379489882
0.06547916667,0.0008571342332
0.0655,0.00087471609
0.06552083333,0.0008918480016
0.06554166667,0.0009118833113
0.0655625,0.000933511823
0.06558333333,0.0009541642503
0.06560416667,0.0009716258501
0.065625,0.0009825398447
0.06564583333,0.0009874459356
0.06566666667,0.0009906858904
0.0656875,0.0009946965147
0.06570833333,0.001003970741
0.06572916667,0.001021150616
0.06575,0.001045697369
0.06577083333,0.001072509447
0.06579166667,0.001096064923
0.0658125,0.00111644424
0.06583333333,0.001133475802
0.06585416667,0.001151113887
0.065875,0.001171741285
0.06589583333,0.001194203971
0.06591666667,0.001216217875
0.0659375,0.00123119913
0.06595833333,0.001240417128
0.06597916667,0.001250351546
0.066,0.001270778943
0.06602083333,0.001303501078
0.06604166667,0.001345547964
0.0660625,0.001387308817
0.06608333333,0.001420792541
0.06610416667,0.001444859547
0.066125,0.001467643306
0.06614583333,0.001498364494
0.06616666667,0.001536354423
0.0661875,0.001573724439
0.06620833333,0.001600715914
0.06622916667,0.001612968743
0.06625,0.001617099275
0.06627083333,0.00162498292
0.06629166667,0.001644042088
0.0663125,0.001672721119
0.06633333333,0.001700699679
0.06635416667,0.001718443003
0.066375,0.001727719791
0.06639583333,0.00173645257
0.06641666667,0.001753737684
0.0664375,0.001782428357
0.06645833333,0.001815610798
0.06647916667,0.001842381549
0.0665,0.001854415052
0.06652083333,0.00185710541
0.06654166667,0.001859076438
0.0665625,0.001869240194
0.06658333333,0.001888799714
0.06660416667,0.001907988102
0.066625,0.001920400537
0.06664583333,0.001924303826
0.06666666667,0.001926582423
0.0666875,0.001935956185
0.06670833333,0.001955603948
0.06672916667,0.001981653972
0.06675,0.002006400377
0.06677083333,0.002025638241
0.06679166667,0.002038895385
0.0668125,0.002053211909
0.06683333333,0.002074317075
0.06685416667,0.002103612758
0.066875,0.002134975046
0.06689583333,0.002163533587
0.06691666667,0.002189270686
0.0669375,0.002210613107
0.06695833333,0.002229147358
0.06697916667,0.00224989769
0.067,0.002270778641
0.06702083333,0.002289893804
0.06704166667,0.002306277864
0.0670625,0.002319173189
0.06708333333,0.002329789102
0.06710416667,0.002339922357
0.067125,0.002353634685
0.06714583333,0.002368399408
0.06716666667,0.002381842118
0.0671875,0.002394849202
0.06720833333,0.002404720522
0.06722916667,0.002411586232
0.06725,0.002415180206
0.06727083333,0.002416670788
0.06729166667,0.002418855438
0.0673125,0.002419192577
0.06733333333,0.002418310614
0.06735416667,0.002415079623
0.067375,0.00241058995
0.06739583333,0.002402087674
0.06741666667,0.002389916452
0.0674375,0.002378531033
0.06745833333,0.002367699752
0.06747916667,0.002358973725
0.0675,0.002352225827
0.06752083333,0.002345526125
0.06754166667,0.002338191727
0.0675625,0.002329098759
0.06758333333,0.002322521526
0.06760416667,0.002320778323
0.067625,0.002322469838
0.06764583333,0.002323587425
0.06766666667,0.002318182262
0.0676875,0.002307116287
0.06770833333,0.00229252805
0.06772916667,0.002278476721
0.06775,0.002268270589
0.06777083333,0.002262518043
0.06779166667,0.00225710636
0.0678125,0.002247249475
0.06783333333,0.002235407708
0.06785416667,0.00222846074
0.067875,0.002227618825
0.06789583333,0.002232610714
0.06791666667,0.002237308538
0.0679375,0.002236087807
0.06795833333,0.002228312427
0.06797916667,0.002217856701
0.068,0.002210667823
0.06802083333,0.002207685495
0.06804166667,0.002204852179
0.0680625,0.002198437694
0.06808333333,0.002188899321
0.06810416667,0.002181407763
0.068125,0.002179420786
0.06814583333,0.002183700912
0.06816666667,0.002192704938
0.0681875,0.002202281728
0.06820833333,0.002210197039
0.06822916667,0.002218762413
0.06825,0.002233404666
0.06827083333,0.002255193191
0.06829166667,0.002280978253
0.0683125,0.002307654591
0.06833333333,0.002332555596
0.06835416667,0.002357692923
0.068375,0.002386348089
0.06839583333,0.002422865946
0.06841666667,0.002467371989
0.0684375,0.002511877567
0.06845833333,0.002553177997
0.06847916667,0.002591795288
0.0685,0.002632551361
0.06852083333,0.002678949386
0.06854166667,0.002730523702
0.0685625,0.00278278836
0.06858333333,0.00283009978
0.06860416667,0.002870674012
0.068625,0.002909605624
0.06864583333,0.002952797338
0.06866666667,0.003001417266
0.0686875,0.003049445804
0.06870833333,0.003092929022
0.06872916667,0.003127408447
0.06875,0.00315592438
0.06877083333,0.00318414066
0.06879166667,0.003217048477
0.0688125,0.00325111975
0.06883333333,0.003279509023
0.06885416667,0.00330115133
0.068875,0.003317989642
0.06889583333,0.003337689675
0.06891666667,0.003362413729
0.0689375,0.003390530823
0.06895833333,0.003417370375
0.06897916667,0.00343741104
0.069,0.003452781122
0.06902083333,0.003465729998
0.06904166667,0.003480703104
0.0690625,0.003498471808
0.06908333333,0.00351448846
0.06910416667,0.003528047819
0.069125,0.00353927305
0.06914583333,0.00355192693
0.06916666667,0.003569628112
0.0691875,0.003591113025
0.06920833333,0.003612710396
0.06922916667,0.003632015083
0.06925,0.003647407982
0.06927083333,0.003659188515
0.06929166667,0.003669810481
0.0693125,0.003679697867
0.06933333333,0.003688147524
0.06935416667,0.003694514511
0.069375,0.003695194842
0.06939583333,0.003693506354
0.06941666667,0.003693279577
0.0694375,0.003697104286
0.06945833333,0.003704312257
0.06947916667,0.003708609845
0.0695,0.003708457341
0.06952083333,0.003704637056
0.06954166667,0.003698993707
0.0695625,0.003691909369
0.06958333333,0.003681410337
0.06960416667,0.003665625816
0.069625,0.003643826582
0.06964583333,0.003619292984
0.06966666667,0.003596654627
0.0696875,0.003577317111
0.06970833333,0.003562549129
0.06972916667,0.003552759998
0.06975,0.00354707404
0.06977083333,0.003544385778
0.06979166667,0.003544870066
0.0698125,0.003546964144
0.06983333333,0.003548674984
0.06985416667,0.003544860985
0.069875,0.003534762189
0.06989583333,0.003520129248
0.06991666667,0.003503312357
0.0699375,0.003486117581
0.06995833333,0.003469571006
0.06997916667,0.003455343889
0.07,0.003448316827
0.07002083333,0.003442398971
0.07004166667,0.00344330119
0.0700625,0.003451770172
0.07008333333,0.003465540474
0.07010416667,0.003478790168
0.070125,0.003488995833
0.07014583333,0.003496018471
0.07016666667,0.00350018451
0.0701875,0.003503270913
0.07020833333,0.003503674408
0.07022916667,0.00350059499
0.07025,0.003492047545
0.07027083333,0.003479739884
0.07029166667,0.003468058538
0.0703125,0.003460033564
0.07033333333,0.00345675298
0.07035416667,0.00345553807
0.070375,0.003454774851
0.07039583333,0.003455283586
0.07041666667,0.003456507344
0.0704375,0.003458647523
0.07045833333,0.003458928317
0.07047916667,0.003455776488
0.0705,0.003447807627
0.07052083333,0.003435428953
0.07054166667,0.00341951102
0.0705625,0.003400457557
0.07058333333,0.003378242254
0.07060416667,0.003355734749
0.070625,0.00333311921
0.07064583333,0.003313972149
0.07066666667,0.003299290081
0.0706875,0.003286883701
0.07070833333,0.00327545125
0.07072916667,0.003262472339
0.07075,0.003249073168
0.07077083333,0.00323826028
0.07079166667,0.003229318187
0.0708125,0.003223405452
0.07083333333,0.003217571182
0.07085416667,0.003209891729
0.070875,0.00320256548
0.07089583333,0.003197744954
0.07091666667,0.003199765459
0.0709375,0.003207127098
0.07095833333,0.003216268495
0.07097916667,0.003224086715
0.071,0.003229631111
0.07102083333,0.003234077711
0.07104166667,0.003240993246
0.0710625,0.003250462469
0.07108333333,0.003259788034
0.07110416667,0.003265894949
0.071125,0.003268320579
0.07114583333,0.003268763889
0.07116666667,0.003268250264
0.0711875,0.003266396699
0.07120833333,0.003264979459
0.07122916667,0.003262064187
0.07125,0.003256996162
0.07127083333,0.003250427078
0.07129166667,0.003242260078
0.0713125,0.003233960131
0.07133333333,0.003225050867
0.07135416667,0.003216836601
0.071375,0.003209738992
0.07139583333,0.003201411571
0.07141666667,0.00319218426
0.0714375,0.00318102492
0.07145833333,0.003168718889
0.07147916667,0.003156845691
0.0715,0.00314483582
0.07152083333,0.003132924205
0.07154166667,0.003122111782
0.0715625,0.003112405771
0.07158333333,0.003102177521
0.07160416667,0.003091345308
0.071625,0.003079232527
0.07164583333,0.003067177255
0.07166666667,0.003056989051
0.0716875,0.003048757091
0.07170833333,0.003039571922
0.07172916667,0.00302774692
0.07175,0.003012354253
0.07177083333,0.00299460371
0.07179166667,0.002978114877
0.0718125,0.002965125954
0.07183333333,0.002951702103
0.07185416667,0.002934361808
0.071875,0.002912119962
0.07189583333,0.00288880826
0.07191666667,0.002866874915
0.0719375,0.002846429823
0.07195833333,0.002825435251
0.07197916667,0.002800842281
0.072,0.002770632273
0.07202083333,0.002735352376
0.07204166667,0.002698803786
0.0720625,0.002665174892
0.07208333333,0.00263259653
0.07210416667,0.002596894978
0.072125,0.002556505147
0.07214583333,0.002514292719
0.07216666667,0.002470948268
0.0721875,0.002429739339
0.07220833333,0.002393672708
0.07222916667,0.002357598627
0.07225,0.002318703104
0.07227083333,0.002278541913
0.07229166667,0.002238077112
0.0723125,0.002198440954
0.07233333333,0.002160627395
0.07235416667,0.002123285551
0.072375,0.002083087806
0.07239583333,0.002039576415
0.07241666667,0.001996251056
0.0724375,0.001953733154
0.07245833333,0.001914656372
0.07247916667,0.001877507078
0.0725,0.001839870936
0.07252083333,0.001800286351
0.07254166667,0.001761375577
0.0725625,0.001725084847
0.07258333333,0.001691054553
0.07260416667,0.001656340668
0.072625,0.001617045957
0.07264583333,0.001570402295
0.07266666667,0.001518517965
0.0726875,0.001465724898
0.07270833333,0.001415964449
0.07272916667,0.001366970362
0.07275,0.001316426904
0.07277083333,0.001263362938
0.07279166667,0.001210583607
0.0728125,0.001162651344
0.07283333333,0.001120902598
0.07285416667,0.001084849238
0.072875,0.001049589715
0.07289583333,0.00101336732
0.07291666667,0.0009767712327
0.0729375,0.0009421694558
0.07295833333,0.0009108115919
0.07297916667,0.0008805168909
0.073,0.0008487740997
0.07302083333,0.0008152037044
0.07304166667,0.0007801613538
0.0730625,0.0007485955721
0.07308333333,0.0007214844809
0.07310416667,0.0006990523543
0.073125,0.000679521414
0.07314583333,0.0006598304608
0.07316666667,0.0006397117395
0.0731875,0.0006230781437
0.07320833333,0.0006113644922
0.07322916667,0.0006040097796
0.07325,0.0005965929013
0.07327083333,0.0005852580653
0.07329166667,0.0005706801312
0.0733125,0.0005549173802
0.07333333333,0.0005399358342
0.07335416667,0.0005263845087
0.073375,0.0005121016293
0.07339583333,0.0004974722397
0.07341666667,0.0004818859452
0.0734375,0.0004665218294
0.07345833333,0.0004549615842
0.07347916667,0.0004487519909
0.0735,0.000445489306
0.07352083333,0.0004429282271
0.07354166667,0.000439944386
0.0735625,0.0004377383157
0.07358333333,0.000437284034
0.07360416667,0.0004391632974
0.073625,0.0004411275731
0.07364583333,0.0004409959947
0.07366666667,0.0004363778862
0.0736875,0.000428456493
0.07370833333,0.0004204385332
0.07372916667,0.0004138666554
0.07375,0.0004092937452
0.07377083333,0.000403730839
0.07379166667,0.000398126489
0.0738125,0.0003942366166
0.07383333333,0.0003932662949
0.07385416667,0.000395296287
0.073875,0.0003999572364
0.07389583333,0.0004049492418
0.07391666667,0.0004098138306
0.0739375,0.0004136581265
0.07395833333,0.0004154648341
0.07397916667,0.0004156728683
0.074,0.0004152856127
0.07402083333,0.0004132404283
0.07404166667,0.0004092732561
0.0740625,0.0004037446924
0.07408333333,0.0003992185229
0.07410416667,0.0003965962678
0.074125,0.0003985436342
0.07414583333,0.0004046066024
0.07416666667,0.0004125123378
0.0741875,0.0004193238856
0.07420833333,0.0004260625283
0.07422916667,0.000435131311
0.07425,0.000447126542
0.07427083333,0.0004609594762
0.07429166667,0.0004752603709
0.0743125,0.0004859186884
0.07433333333,0.0004947261768
0.07435416667,0.0005026427098
0.074375,0.0005116047687
0.07439583333,0.0005212280084
0.07441666667,0.0005304683
0.0744375,0.0005378923961
0.07445833333,0.0005426228163
0.07447916667,0.0005473486963
0.0745,0.0005512540229
0.07452083333,0.0005544853047
0.07454166667,0.0005565320607
0.0745625,0.0005579648423
0.07458333333,0.0005583891179
0.07460416667,0.0005582955782
0.074625,0.0005581403384
0.07464583333,0.0005570992944
0.07466666667,0.0005572139635
0.0746875,0.000557632884
0.07470833333,0.0005564130261
0.07472916667,0.0005550822825
0.07475,0.0005546730827
0.07477083333,0.0005563006271
0.07479166667,0.0005559285055
0.0748125,0.0005513878423
0.07483333333,0.0005435078056
0.07485416667,0.000535367697
0.074875,0.0005281960475
0.07489583333,0.000520206755
0.07491666667,0.0005120756687
0.0749375,0.0005027032457
0.07495833333,0.0004933038726
0.07497916667,0.000486301491
0.075,0.0004807776131
0.07502083333,0.0004773677501
0.07504166667,0.000476540823
0.0750625,0.0004767239152
0.07508333333,0.0004764277837
0.07510416667,0.0004760783049
0.075125,0.0004771087843
0.07514583333,0.0004784610355
0.07516666667,0.0004783733748
0.0751875,0.0004750786466
0.07520833333,0.0004695648677
0.07522916667,0.0004608232121
0.07525,0.0004510346334
0.07527083333,0.0004402901977
0.07529166667,0.0004280976718
0.0753125,0.0004146597057
0.07533333333,0.0003980027395
0.07535416667,0.0003777868696
0.075375,0.0003574468137
0.07539583333,0.0003383095318
0.07541666667,0.0003192363947
0.0754375,0.0002992239315
0.07545833333,0.0002767699771
0.07547916667,0.0002512558713
0.0755,0.0002246373333
0.07552083333,0.0001975442283
0.07554166667,0.0001702731388
0.0755625,0.0001418835891
0.07558333333,0.0001116327694
0.07560416667,7.920837379e-05
0.075625,4.50961852e-05
0.07564583333,1.014389181e-05
0.07566666667,-2.426707033e-05
0.0756875,-5.794909885e-05
0.07570833333,-9.209743439e-05
0.07572916667,-0.0001272021618
0.07575,-0.0001643501309
0.07577083333,-0.0002017908409
0.07579166667,-0.0002363834938
0.0758125,-0.0002689853718
0.07583333333,-0.0003013816022
0.07585416667,-0.0003351177729
0.075875,-0.0003728919255
0.07589583333,-0.0004105736734
0.07591666667,-0.0004464265076
0.0759375,-0.0004801507748
0.07595833333,-0.0005133947707
0.07597916667,-0.0005487194285
0.076,-0.0005862723337
0.07602083333,-0.0006253166357
0.07604166667,-0.0006644611713
0.0760625,-0.0007011900889
0.07608333333,-0.0007378463051
0.07610416667,-0.0007733213133
0.076125,-0.0008095742669
0.07614583333,-0.0008475528448
0.07616666667,-0.000882648339
0.0761875,-0.0009149779216
0.07620833333,-0.0009463696624
0.07622916667,-0.0009764995193
0.07625,-0.001006914419
0.07627083333,-0.001036723494
0.07629166667,-0.001065691584
0.0763125,-0.001093353028
0.07633333333,-0.001121029258
0.07635416667,-0.001149323652
0.076375,-0.001181389438
0.07639583333,-0.001216876903
0.07641666667,-0.001253776019
0.0764375,-0.001290520304
0.07645833333,-0.001328387647
0.07647916667,-0.001369335456
0.0765,-0.001412950922
0.07652083333,-0.00145730318
0.07654166667,-0.001501751132
0.0765625,-0.001545242732
0.07658333333,-0.001587074832
0.07660416667,-0.001626802026
0.076625,-0.001663750736
0.07664583333,-0.001698707463
0.07666666667,-0.001733082812
0.0766875,-0.001766999718
0.07670833333,-0.00179996423
0.07672916667,-0.001833312679
0.07675,-0.001865488826
0.07677083333,-0.001897922601
0.07679166667,-0.001930043916
0.0768125,-0.001961466391
0.07683333333,-0.001991953002
0.07685416667,-0.002021566732
0.076875,-0.002049108036
0.07689583333,-0.002074698219
0.07691666667,-0.00209772354
0.0769375,-0.002118391683
0.07695833333,-0.002138228389
0.07697916667,-0.002156885341
0.077,-0.002173403976
0.07702083333,-0.002189869061
0.07704166667,-0.002204544842
0.0770625,-0.002218705136
0.07708333333,-0.002232379047
0.07710416667,-0.002244718373
0.077125,-0.002257154789
0.07714583333,-0.002270098776
0.07716666667,-0.002283047419
0.0771875,-0.002296277322
0.07720833333,-0.00230950187
0.07722916667,-0.002322082408
0.07725,-0.002335460857
0.07727083333,-0.002349908929
0.07729166667,-0.002365916036
0.0773125,-0.002383507788
0.07733333333,-0.002402716782
0.07735416667,-0.002422015881
0.077375,-0.002440186683
0.07739583333,-0.002456072951
0.07741666667,-0.002471762942
0.0774375,-0.002484971425
0.07745833333,-0.002495036693
0.07747916667,-0.002501600888
0.0775,-0.002504779259
0.07752083333,-0.002505395096
0.07754166667,-0.002503792057
0.0775625,-0.002500677714
0.07758333333,-0.002495384309
0.07760416667,-0.002488756087
0.077625,-0.002481881296
0.07764583333,-0.002476929221
0.07766666667,-0.002473864704
0.0776875,-0.002470786683
0.07770833333,-0.002468992025
0.07772916667,-0.002467033453
0.07775,-0.002464234829
0.07777083333,-0.002460857853
0.07779166667,-0.00245731161
0.0778125,-0.002455058508
0.07783333333,-0.002452200977
0.07785416667,-0.002447820269
0.077875,-0.002440971555
0.07789583333,-0.002431922359
0.07791666667,-0.002423961181
0.0779375,-0.00241872482
0.07795833333,-0.002415871015
0.07797916667,-0.002414879156
0.078,-0.002414542716
0.07802083333,-0.002413996495
0.07804166667,-0.002415741095
0.0780625,-0.002418828895
0.07808333333,-0.002422427991
0.07810416667,-0.00242466433
0.078125,-0.002424390288
0.07814583333,-0.002421249636
0.07816666667,-0.002415273804
0.0781875,-0.002407453489
0.07820833333,-0.002397519536
0.07822916667,-0.002384610707
0.07825,-0.002369791036
0.07827083333,-0.002355260309
0.07829166667,-0.002341806889
0.0783125,-0.002330545103
0.07833333333,-0.00232090801
0.07835416667,-0.00231364998
0.078375,-0.002308360068
0.07839583333,-0.002305663191
0.07841666667,-0.002303513465
0.0784375,-0.002300862921
0.07845833333,-0.002296639141
0.07847916667,-0.002292852616
0.0785,-0.002289345721
0.07852083333,-0.002285957569
0.07854166667,-0.002278608037
0.0785625,-0.002269331366
0.07858333333,-0.002261246787
0.07860416667,-0.002253694925
0.078625,-0.002248277655
0.07864583333,-0.002243386116
0.07866666667,-0.002238071058
0.0786875,-0.002234433545
0.07870833333,-0.002230861923
0.07872916667,-0.00222809054
0.07875,-0.002226058394
0.07877083333,-0.002224286553
0.07879166667,-0.002223394113
0.0788125,-0.002219372895
0.07883333333,-0.002215122804
0.07885416667,-0.002211471554
0.078875,-0.002207913902
0.07889583333,-0.002204179997
0.07891666667,-0.002197729424
0.0789375,-0.002189462772
0.07895833333,-0.002180010779
0.07897916667,-0.002170429332
0.079,-0.002160107717
0.07902083333,-0.002150260145
0.07904166667,-0.002140845871
0.0790625,-0.0021285119
0.07908333333,-0.00211591972
0.07910416667,-0.002104149899
0.079125,-0.002093659714
0.07914583333,-0.0020844799
0.07916666667,-0.002076483099
0.0791875,-0.002068489091
0.07920833333,-0.002060649917
0.07922916667,-0.0020532161
0.07925,-0.002045477275
0.07927083333,-0.002038971521
0.07929166667,-0.00203285506
0.0793125,-0.002024539281
0.07933333333,-0.00201495178
0.07935416667,-0.002004807815
0.079375,-0.001996140694
0.07939583333,-0.001988758566
0.07941666667,-0.001980701229
0.0794375,-0.001970491139
0.07945833333,-0.0019611225
0.07947916667,-0.001953842118
0.0795,-0.001949663623
0.07952083333,-0.00194589491
0.07954166667,-0.001940251212
0.0795625,-0.001934574684
0.07958333333,-0.001929235877
0.07960416667,-0.001926944708
0.079625,-0.00192527636
0.07964583333,-0.001924899523
0.07966666667,-0.001923918724
0.0796875,-0.001919349423
0.07970833333,-0.001913843211
0.07972916667,-0.001909212675
0.07975,-0.001905462588
0.07977083333,-0.001902131597
0.07979166667,-0.001897485112
0.0798125,-0.001892950968
0.07983333333,-0.001888130442
0.07985416667,-0.001885067322
0.079875,-0.00188265834
0.07989583333,-0.001879702089
0.07991666667,-0.001877401723
0.0799375,-0.001875063637
0.07995833333,-0.001872739056
0.07997916667,-0.00186951051
0.08,-0.001871661167
0.08002083333,-0.001869432745
0.08004166667,-0.001865736442
0.0800625,-0.001861146768
0.08008333333,-0.001854504691
0.08010416667,-0.001849783352
0.080125,-0.001845472027
0.08014583333,-0.00184101495
0.08016666667,-0.001838684315
0.0801875,-0.001835076138
0.08020833333,-0.001830988098
0.08022916667,-0.001824753126
0.08025,-0.001818223856
0.08027083333,-0.001814693795
0.08029166667,-0.001812343136
0.0803125,-0.001808516681
0.08033333333,-0.001802305225
0.08035416667,-0.001794373733
0.080375,-0.001788964379
0.08039583333,-0.001784423017
0.08041666667,-0.001780106686
0.0804375,-0.001776578487
0.08045833333,-0.001774235396
0.08047916667,-0.001771973213
0.0805,-0.00177020242
0.08052083333,-0.001771847601
0.08054166667,-0.001773962285
0.0805625,-0.00177628512
0.08058333333,-0.00177673751
0.08060416667,-0.001775571611
0.080625,-0.001778297243
0.08064583333,-0.001780977123
0.08066666667,-0.001781685161
0.0806875,-0.001780616236
0.08070833333,-0.001775341574
0.08072916667,-0.001771168318
0.08075,-0.001766120666
0.08077083333,-0.001762312953
0.08079166667,-0.00175996765
0.0808125,-0.001756259357
0.08083333333,-0.001752982615
0.08085416667,-0.001748244511
0.080875,-0.001745129586
0.08089583333,-0.001745635178
0.08091666667,-0.001746927039
0.0809375,-0.001747768256
0.08095833333,-0.001746293507
0.08097916667,-0.00174238428
0.081,-0.001739124884
0.08102083333,-0.001736984472
0.08104166667,-0.001734360354
0.0810625,-0.001730821095
0.08108333333,-0.001725282054
0.08110416667,-0.001719836146
0.081125,-0.001714006066
0.08114583333,-0.001709029078
0.08116666667,-0.001705038012
0.0811875,-0.00170125463
0.08120833333,-0.001698798616
0.08122916667,-0.001696885331
0.08125,-0.001695007319
0.08127083333,-0.001695074723
0.08129166667,-0.001696006279
0.0813125,-0.001695464598
0.08133333333,-0.001695657615
0.08135416667,-0.001698458917
0.081375,-0.001697430969
0.08139583333,-0.001696569845
0.08141666667,-0.001696064603
0.0814375,-0.001695258892
0.08145833333,-0.001694918377
0.08147916667,-0.001692014164
0.0815,-0.001690282719
0.08152083333,-0.001686644508
0.08154166667,-0.001685552998
0.0815625,-0.001686185831
0.08158333333,-0.001683272887
0.08160416667,-0.001678389148
0.081625,-0.00167193322
0.08164583333,-0.001666020718
0.08166666667,-0.001661110204
0.0816875,-0.001655950677
0.08170833333,-0.001650043181
0.08172916667,-0.001640203176
0.08175,-0.001628841856
0.08177083333,-0.001615711371
0.08179166667,-0.001604703488
0.0818125,-0.001592153567
0.08183333333,-0.001578044263
0.08185416667,-0.001562947058
0.081875,-0.001546104671
0.08189583333,-0.001531181741
0.08191666667,-0.001515737851
0.0819375,-0.001499500824
0.08195833333,-0.001483370666
0.08197916667,-0.001465220121
0.082,-0.001447458635
0.08202083333,-0.001430398086
0.08204166667,-0.001413576887
0.0820625,-0.001397129963
0.08208333333,-0.001379041001
0.08210416667,-0.001359652262
0.082125,-0.00134061568
0.08214583333,-0.001322101452
0.08216666667,-0.001305581303
0.0821875,-0.001288933563
0.08220833333,-0.001271191984
0.08222916667,-0.001253124792
0.08225,-0.001234218245
0.08227083333,-0.00121510576
0.08229166667,-0.001195188612
0.0823125,-0.001178184059
0.08233333333,-0.001161492663
0.08235416667,-0.001146932365
0.082375,-0.001132608391
0.08239583333,-0.001116099185
0.08241666667,-0.00110154727
0.0824375,-0.001086864388
0.08245833333,-0.001070755417
0.08247916667,-0.001056280336
0.0825,-0.001039141905
0.08252083333,-0.001022928394
0.08254166667,-0.00100612489
0.0825625,-0.0009871269576
0.08258333333,-0.0009668290731
0.08260416667,-0.0009443419985
0.082625,-0.0009226348484
0.08264583333,-0.0009021193837
0.08266666667,-0.0008838993963
0.0826875,-0.0008668660303
0.08270833333,-0.0008483119891
0.08272916667,-0.000832238351
0.08275,-0.0008173836395
0.08277083333,-0.0008038106025
0.08279166667,-0.0007910248241
0.0828125,-0.0007805193309
0.08283333333,-0.0007715868414
0.08285416667,-0.0007629987085
0.082875,-0.0007533623138
0.08289583333,-0.0007430274272
0.08291666667,-0.0007326990017
0.0829375,-0.0007196430233
0.08295833333,-0.0007079609204
0.08297916667,-0.0006966997753
0.083,-0.0006828397163
0.08302083333,-0.0006682816893
0.08304166667,-0.0006532926345
0.0830625,-0.000639020931
0.08308333333,-0.000626154826
0.08310416667,-0.0006106244982
0.083125,-0.00059763639
0.08314583333,-0.0005845211563
0.08316666667,-0.0005722143687
0.0831875,-0.0005611801171
0.08320833333,-0.0005504537839
0.08322916667,-0.0005402381066
0.08325,-0.0005310240085
0.08327083333,-0.0005189206568
0.08329166667,-0.0005069694598
0.0833125,-0.0004963327665
0.08333333333,-0.0004884462687
0.08335416667,-0.0004798547598
0.083375,-0.000473602995
0.08339583333,-0.0004647391615
0.08341666667,-0.000457173388
0.0834375,-0.0004514318134
0.08345833333,-0.0004456719616
0.08347916667,-0.0004434267757
0.0835,-0.0004393715353
0.08352083333,-0.0004364862398
0.08354166667,-0.0004352543619
0.0835625,-0.0004318631836
0.08358333333,-0.0004296240804
0.08360416667,-0.0004265236203
0.083625,-0.000422923622
0.08364583333,-0.0004188712046
0.08366666667,-0.0004134787305
0.0836875,-0.0004111524613
0.08370833333,-0.0004055042518
0.08372916667,-0.0004020566703
0.08375,-0.0003955229477
0.08377083333,-0.0003900947049
0.08379166667,-0.0003848815395
0.0838125,-0.0003779357066
0.08383333333,-0.0003757964296
0.08385416667,-0.0003741384426
0.083875,-0.0003712664766
0.08389583333,-0.0003693768522
0.08391666667,-0.0003662184463
0.0839375,-0.0003638042544
0.08395833333,-0.0003594580339
0.08397916667,-0.0003566921805
0.084,-0.0003537466109
0.08402083333,-0.0003484949702
0.08404166667,-0.0003399301204
0.0840625,-0.0003326078877
0.08408333333,-0.0003250767768
0.08410416667,-0.0003141177294
0.084125,-0.0003029086802
0.08414583333,-0.0002911878983
0.08416666667,-0.0002804512333
0.0841875,-0.0002727692772
0.08420833333,-0.0002634967386
0.08422916667,-0.0002584436152
0.08425,-0.0002522773284
0.08427083333,-0.000245166535
0.08429166667,-0.0002414295741
0.0843125,-0.0002353378659
0.08433333333,-0.0002323583321
0.08435416667,-0.0002226547804
0.084375,-0.000212031111
0.08439583333,-0.0002035473735
0.08441666667,-0.0001886268728
0.0844375,-0.0001761954918
0.08445833333,-0.0001623899007
0.08447916667,-0.0001484143722
0.0845,-0.0001362848852
0.08452083333,-0.0001231761125
0.08454166667,-0.0001117397551
0.0845625,-9.84644139e-05
0.08458333333,-8.901782712e-05
0.08460416667,-7.650572661e-05
0.084625,-6.535215653e-05
0.08464583333,-5.369705832e-05
0.08466666667,-4.344870467e-05
0.0846875,-3.272329195e-05
0.08470833333,-2.096831486e-05
0.08472916667,-1.193789649e-05
0.08475,2.715742085e-06
0.08477083333,1.777500438e-05
0.08479166667,3.030171865e-05
0.0848125,4.406240259e-05
0.08483333333,5.60370172e-05
0.08485416667,7.075066969e-05
0.084875,8.526756574e-05
0.08489583333,9.884397878e-05
0.08491666667,0.0001112914906
0.0849375,0.0001219156766
0.08495833333,0.000136329516
0.08497916667,0.0001465540699
0.085,0.0001570524182
0.08502083333,0.000167963939
0.08504166667,0.0001768889051
0.0850625,0.0001896745816
0.08508333333,0.0002001660614
0.08510416667,0.000211113249
0.085125,0.0002235847496
0.08514583333,0.0002339906496
0.08516666667,0.000243799499
0.0851875,0.0002532354265
0.08520833333,0.0002625977504
0.08522916667,0.0002707585518
0.08525,0.0002791548904
0.08527083333,0.0002849510056
0.08529166667,0.0002913573699
0.0853125,0.0002975326497
0.08533333333,0.0003057007561
0.08535416667,0.0003171293065
0.085375,0.0003243646061
0.08539583333,0.0003314202186
0.08541666667,0.0003373609798
0.0854375,0.0003449231153
0.08545833333,0.0003544627398
0.08547916667,0.0003595022135
0.0855,0.0003647778067
0.08552083333,0.0003669801226
0.08554166667,0.000369575806
0.0855625,0.0003738101805
0.08558333333,0.0003777070087
0.08560416667,0.0003802080755
0.085625,0.0003841257712
0.08564583333,0.000388350687
0.08566666667,0.0003926852078
0.0856875,0.0003987737582
0.08570833333,0.0004046104441
0.08572916667,0.0004128233995
0.08575,0.0004229251645
0.08577083333,0.0004293731763
0.08579166667,0.0004390093964
0.0858125,0.0004500938812
0.08583333333,0.0004611593904
0.08585416667,0.0004760170996
0.085875,0.0004851035192
0.08589583333,0.0004950662842
0.08591666667,0.0005076886737
0.0859375,0.0005227403017
0.08595833333,0.0005403859541
0.08597916667,0.0005538898404
0.086,0.0005691373954
0.08602083333,0.0005831620656
0.08604166667,0.000598326209
0.0860625,0.0006165953819
0.08608333333,0.000629696995
0.08610416667,0.0006465331535
0.086125,0.000659059966
0.08614583333,0.0006723318365
0.08616666667,0.0006855076645
0.0861875,0.0006961437175
0.08620833333,0.0007109779981
0.08622916667,0.0007209274918
0.08625,0.0007300455472
0.08627083333,0.0007390641258
0.08629166667,0.0007473367732
0.0863125,0.0007619422395
0.08633333333,0.0007700736751
0.08635416667,0.0007793494733
0.086375,0.0007906570681
0.08639583333,0.0008018809021
0.08641666667,0.0008210305823
0.0864375,0.0008376642363
0.08645833333,0.0008566051256
0.08647916667,0.0008760962519
0.0865,0.0008945571026
0.08652083333,0.0009119330207
0.08654166667,0.0009252488962
0.0865625,0.0009422408184
0.08658333333,0.0009539675084
0.08660416667,0.0009626552928
0.086625,0.0009724285919
0.08664583333,0.0009783306159
0.08666666667,0.0009855866665
0.0866875,0.0009909509681
0.08670833333,0.0009971706895
0.08672916667,0.001001872588
0.08675,0.001007323968
0.08677083333,0.001013580477
0.08679166667,0.001016909839
0.0868125,0.001022930606
0.08683333333,0.001025241683
0.08685416667,0.001026275451
0.086875,0.001025816076
0.08689583333,0.001022718032
0.08691666667,0.001026344718
0.0869375,0.001025807927
0.08695833333,0.001028508646
0.08697916667,0.001030783402
0.087,0.001030869666
0.08702083333,0.001037872047
0.08704166667,0.001042238087
0.0870625,0.001049024053
0.08708333333,0.001058323658
0.08710416667,0.001064507407
0.087125,0.001072053565
0.08714583333,0.00107876386
0.08716666667,0.001084631309
0.0871875,0.001089586527
0.08720833333,0.00109475397
0.08722916667,0.001101276954
0.08725,0.001105362549
0.08727083333,0.001112820813
0.08729166667,0.001117265201
0.0873125,0.001122300047
0.08733333333,0.001128810924
0.08735416667,0.001131361234
0.087375,0.001131677651
0.08739583333,0.0011321411
