time,data
0,5.600901432e-08
2.083333333e-05,7.613797948e-08
4.166666667e-05,9.448055494e-08
6.25e-05,1.109151526e-07
8.333333333e-05,1.271485388e-07
0.0001041666667,1.444247459e-07
0.000125,1.629960451e-07
0.0001458333333,1.821279056e-07
0.0001666666667,2.001921047e-07
0.0001875,2.171600499e-07
0.0002083333333,2.335124236e-07
0.0002291666667,2.513247352e-07
0.00025,2.716623158e-07
0.0002708333333,2.945612607e-07
0.0002916666667,3.189823019e-07
0.0003125,3.431178754e-07
0.0003333333333,3.66794211e-07
0.0003541666667,3.89879375e-07
0.000375,4.136598477e-07
0.0003958333333,4.381807059e-07
0.0004166666667,4.628360557e-07
0.0004375,4.865266874e-07
0.0004583333333,5.077166065e-07
0.0004791666667,5.266517746e-07
0.0005,5.433068395e-07
0.0005208333333,5.59103114e-07
0.0005416666667,5.744466876e-07
0.0005625,5.897462643e-07
0.0005833333333,6.050665888e-07
0.0006041666667,6.198056326e-07
0.000625,6.341762173e-07
0.0006458333333,6.473626399e-07
0.0006666666667,6.598910431e-07
0.0006875,6.715171139e-07
0.0007083333333,6.827478387e-07
0.0007291666667,6.934065482e-07
0.00075,7.02126556e-07
0.0007708333333,7.076956763e-07
0.0007916666667,7.077316582e-07
0.0008125,7.026878848e-07
0.0008333333333,6.931890653e-07
0.0008541666667,6.817818416e-07
0.000875,6.697600838e-07
0.0008958333333,6.561607506e-07
0.0009166666667,6.397318657e-07
0.0009375,6.180864602e-07
0.0009583333333,5.929363169e-07
0.0009791666667,5.66701658e-07
0.001,5.429525913e-07
0.001020833333,5.225597306e-07
0.001041666667,5.0219694e-07
0.0010625,4.781177267e-07
0.001083333333,4.464020265e-07
0.001104166667,4.08671383e-07
0.001125,3.680723921e-07
0.001145833333,3.282272587e-07
0.001166666667,2.889609618e-07
0.0011875,2.459951247e-07
0.001208333333,1.953028885e-07
0.001229166667,1.351710068e-07
0.00125,7.01768812e-08
0.001270833333,6.149223797e-09
0.001291666667,-5.195594355e-08
0.0013125,-1.050100877e-07
0.001333333333,-1.577774071e-07
0.001354166667,-2.143340225e-07
0.001375,-2.759822735e-07
0.001395833333,-3.376297286e-07
0.001416666667,-3.953258556e-07
0.0014375,-4.466408825e-07
0.001458333333,-4.955596182e-07
0.001479166667,-5.484831718e-07
0.0015,-6.090610896e-07
0.001520833333,-6.775811698e-07
0.001541666667,-7.480336421e-07
0.0015625,-8.162331255e-07
0.001583333333,-8.79786171e-07
0.001604166667,-9.409404811e-07
0.001625,-1.003307489e-06
0.001645833333,-1.067141625e-06
0.001666666667,-1.130655164e-06
0.0016875,-1.188233114e-06
0.001708333333,-1.23741961e-06
0.001729166667,-1.277448177e-06
0.00175,-1.311659616e-06
0.001770833333,-1.34341326e-06
0.001791666667,-1.374570047e-06
0.0018125,-1.405912258e-06
0.001833333333,-1.435587478e-06
0.001854166667,-1.463966214e-06
0.001875,-1.489925694e-06
0.001895833333,-1.514495921e-06
0.001916666667,-1.538064225e-06
0.0019375,-1.560374358e-06
0.001958333333,-1.582467689e-06
0.001979166667,-1.601600616e-06
0.002,-1.616588293e-06
0.002020833333,-1.622416221e-06
0.002041666667,-1.616731424e-06
0.0020625,-1.599495704e-06
0.002083333333,-1.573169016e-06
0.002104166667,-1.543676149e-06
0.002125,-1.512290623e-06
0.002145833333,-1.478827244e-06
0.002166666667,-1.438608138e-06
0.0021875,-1.389044655e-06
0.002208333333,-1.333192586e-06
0.002229166667,-1.276928856e-06
0.00225,-1.228288738e-06
0.002270833333,-1.187078055e-06
0.002291666667,-1.147733883e-06
0.0023125,-1.09992709e-06
0.002333333333,-1.037813377e-06
0.002354166667,-9.636401046e-07
0.002375,-8.850444715e-07
0.002395833333,-8.093308566e-07
0.002416666667,-7.349698876e-07
0.0024375,-6.542481401e-07
0.002458333333,-5.574460715e-07
0.002479166667,-4.432368144e-07
0.0025,-3.200896685e-07
0.002520833333,-2.007786293e-07
0.002541666667,-9.508654841e-08
0.0025625,-2.276999977e-10
0.002583333333,9.187832717e-08
0.002604166667,1.913418402e-07
0.002625,2.983523189e-07
0.002645833333,4.05167583e-07
0.002666666667,5.028997521e-07
0.0026875,5.878181923e-07
0.002708333333,6.680808724e-07
0.002729166667,7.546184406e-07
0.00275,8.560057836e-07
0.002770833333,9.710047379e-07
0.002791666667,1.090143428e-06
0.0028125,1.205170179e-06
0.002833333333,1.311358233e-06
0.002854166667,1.413485961e-06
0.002875,1.51563313e-06
0.002895833333,1.620084049e-06
0.002916666667,1.721980084e-06
0.0029375,1.813598146e-06
0.002958333333,1.890343242e-06
0.002979166667,1.951134436e-06
0.003,2.00129989e-06
0.003020833333,2.045502242e-06
0.003041666667,2.087820121e-06
0.0030625,2.1299129e-06
0.003083333333,2.171244205e-06
0.003104166667,2.212577556e-06
0.003125,2.251941396e-06
0.003145833333,2.289718168e-06
0.003166666667,2.323929721e-06
0.0031875,2.356014875e-06
0.003208333333,2.386694632e-06
0.003229166667,2.415680683e-06
0.00325,2.439690661e-06
0.003270833333,2.449939075e-06
0.003291666667,2.440541039e-06
0.0033125,2.408588671e-06
0.003333333333,2.360791314e-06
0.003354166667,2.307587238e-06
0.003375,2.254703531e-06
0.003395833333,2.202519909e-06
0.003416666667,2.140484867e-06
0.0034375,2.064285582e-06
0.003458333333,1.975186933e-06
0.003479166667,1.886673772e-06
0.0035,1.812660116e-06
0.003520833333,1.75570608e-06
0.003541666667,1.706176022e-06
0.0035625,1.644215104e-06
0.003583333333,1.558423378e-06
0.003604166667,1.450940545e-06
0.003625,1.336328637e-06
0.003645833333,1.228727456e-06
0.003666666667,1.127031055e-06
0.0036875,1.018203761e-06
0.003708333333,8.835154404e-07
0.003729166667,7.202458505e-07
0.00375,5.408057859e-07
0.003770833333,3.700577906e-07
0.003791666667,2.239568175e-07
0.0038125,1.006325689e-07
0.003833333333,-1.570583663e-08
0.003854166667,-1.43283998e-07
0.003875,-2.830896051e-07
0.003895833333,-4.234664743e-07
0.003916666667,-5.465003596e-07
0.0039375,-6.462112196e-07
0.003958333333,-7.354833542e-07
0.003979166667,-8.331397794e-07
0.004,-9.569461099e-07
0.004020833333,-1.102618626e-06
0.004041666667,-1.257097551e-06
0.0040625,-1.40177201e-06
0.004083333333,-1.530530426e-06
0.004104166667,-1.649724823e-06
0.004125,-1.768599191e-06
0.004145833333,-1.892720093e-06
0.004166666667,-2.013341827e-06
0.0041875,-2.11848851e-06
0.004208333333,-2.196782816e-06
0.004229166667,-2.24756559e-06
0.00425,-2.27960436e-06
0.004270833333,-2.302224857e-06
0.004291666667,-2.325931746e-06
0.0043125,-2.34992217e-06
0.004333333333,-2.376077191e-06
0.004354166667,-2.398714514e-06
0.004375,-2.418009672e-06
0.004395833333,-2.433039072e-06
0.004416666667,-2.444293386e-06
0.0044375,-2.456825086e-06
0.004458333333,-2.469084848e-06
0.004479166667,-2.481802539e-06
0.0045,-2.483532398e-06
0.004520833333,-2.462319571e-06
0.004541666667,-2.409290346e-06
0.0045625,-2.322106866e-06
0.004583333333,-2.216813982e-06
0.004604166667,-2.104610985e-06
0.004625,-1.998226708e-06
0.004645833333,-1.889042551e-06
0.004666666667,-1.765190518e-06
0.0046875,-1.61819014e-06
0.004708333333,-1.454704829e-06
0.004729166667,-1.299244559e-06
0.00475,-1.169679081e-06
0.004770833333,-1.071471502e-06
0.004791666667,-9.820055311e-07
0.0048125,-8.730651757e-07
0.004833333333,-7.276890415e-07
0.004854166667,-5.515303201e-07
0.004875,-3.728376328e-07
0.004895833333,-2.070426888e-07
0.004916666667,-5.628125876e-08
0.0049375,1.093764581e-07
0.004958333333,3.129315473e-07
0.004979166667,5.607006983e-07
0.005,8.282535759e-07
0.005020833333,1.07527319e-06
0.005041666667,1.281137884e-06
0.0050625,1.447084173e-06
0.005083333333,1.604636623e-06
0.005104166667,1.777194484e-06
0.005125,1.967084245e-06
0.005145833333,2.153804417e-06
0.005166666667,2.306756187e-06
0.0051875,2.423513479e-06
0.005208333333,2.518543397e-06
0.005229166667,2.630314157e-06
0.00525,2.777010423e-06
0.005270833333,2.957074912e-06
0.005291666667,3.144930815e-06
0.0053125,3.3136198e-06
0.005333333333,3.457245157e-06
0.005354166667,3.582540103e-06
0.005375,3.709999191e-06
0.005395833333,3.840722457e-06
0.005416666667,3.965532869e-06
0.0054375,4.062975222e-06
0.005458333333,4.116389391e-06
0.005479166667,4.130749403e-06
0.0055,4.112185252e-06
0.005520833333,4.085143701e-06
0.005541666667,4.05224182e-06
0.0055625,4.022205758e-06
0.005583333333,3.990082405e-06
0.005604166667,3.952845418e-06
0.005625,3.913356522e-06
0.005645833333,3.86533884e-06
0.005666666667,3.816843218e-06
0.0056875,3.763850827e-06
0.005708333333,3.711822501e-06
0.005729166667,3.657352863e-06
0.00575,3.586733101e-06
0.005770833333,3.488808716e-06
0.005791666667,3.341485581e-06
0.0058125,3.152295449e-06
0.005833333333,2.928497679e-06
0.005854166667,2.698775461e-06
0.005875,2.473248969e-06
0.005895833333,2.247524662e-06
0.005916666667,2.006469686e-06
0.0059375,1.732727242e-06
0.005958333333,1.442411872e-06
0.005979166667,1.158046643e-06
0.006,9.147494779e-07
0.006020833333,7.146711027e-07
0.006041666667,5.310158144e-07
0.0060625,3.278852034e-07
0.006083333333,7.203482255e-08
0.006104166667,-2.176645069e-07
0.006125,-5.190852903e-07
0.006145833333,-7.949747669e-07
0.006166666667,-1.053655069e-06
0.0061875,-1.326692313e-06
0.006208333333,-1.647095814e-06
0.006229166667,-2.027779374e-06
0.00625,-2.427615755e-06
0.006270833333,-2.802662948e-06
0.006291666667,-3.11324402e-06
0.0063125,-3.368704938e-06
0.006333333333,-3.606749942e-06
0.006354166667,-3.85809426e-06
0.006375,-4.132385129e-06
0.006395833333,-4.391114999e-06
0.006416666667,-4.607922619e-06
0.0064375,-4.763937341e-06
0.006458333333,-4.894739504e-06
0.006479166667,-5.040128599e-06
0.0065,-5.231949672e-06
0.006520833333,-5.466341918e-06
0.006541666667,-5.703023817e-06
0.0065625,-5.916275313e-06
0.006583333333,-6.084637334e-06
0.006604166667,-6.231551197e-06
0.006625,-6.373849374e-06
0.006645833333,-6.516628218e-06
0.006666666667,-6.64972049e-06
0.0066875,-6.732553175e-06
0.006708333333,-6.760005817e-06
0.006729166667,-6.719643807e-06
0.00675,-6.640845186e-06
0.006770833333,-6.540476988e-06
0.006791666667,-6.432921055e-06
0.0068125,-6.325657978e-06
0.006833333333,-6.208260857e-06
0.006854166667,-6.086581379e-06
0.006875,-5.950941159e-06
0.006895833333,-5.809020877e-06
0.006916666667,-5.658453574e-06
0.0069375,-5.502680779e-06
0.006958333333,-5.347397291e-06
0.006979166667,-5.180007975e-06
0.007,-4.99660473e-06
0.007020833333,-4.759985131e-06
0.007041666667,-4.464886842e-06
0.0070625,-4.099797934e-06
0.007083333333,-3.69337522e-06
0.007104166667,-3.276414645e-06
0.007125,-2.861414941e-06
0.007145833333,-2.451336059e-06
0.007166666667,-2.007957619e-06
0.0071875,-1.527513291e-06
0.007208333333,-1.015600219e-06
0.007229166667,-5.170799682e-07
0.00725,-7.701139282e-08
0.007270833333,3.086803702e-07
0.007291666667,6.626740969e-07
0.0073125,1.058318389e-06
0.007333333333,1.514108249e-06
0.007354166667,2.028591098e-06
0.007375,2.548305702e-06
0.007395833333,3.033732355e-06
0.007416666667,3.494773637e-06
0.0074375,3.967926659e-06
0.007458333333,4.5158381e-06
0.007479166667,5.13581972e-06
0.0075,5.790137038e-06
0.007520833333,6.401886367e-06
0.007541666667,6.922340162e-06
0.0075625,7.367739727e-06
0.007583333333,7.777307474e-06
0.007604166667,8.215793059e-06
0.007625,8.670748684e-06
0.007645833333,9.116249203e-06
0.007666666667,9.491333913e-06
0.0076875,9.786018381e-06
0.007708333333,1.003952275e-05
0.007729166667,1.030466228e-05
0.00775,1.063607669e-05
0.007770833333,1.10122337e-05
0.007791666667,1.139991582e-05
0.0078125,1.174364024e-05
0.007833333333,1.20278346e-05
0.007854166667,1.227712892e-05
0.007875,1.250754849e-05
0.007895833333,1.274496026e-05
0.007916666667,1.294937556e-05
0.0079375,1.310103744e-05
0.007958333333,1.316100497e-05
0.007979166667,1.313686789e-05
0.008,1.305159549e-05
0.008020833333,1.292732213e-05
0.008041666667,1.279467324e-05
0.0080625,1.264554521e-05
0.008083333333,1.249282468e-05
0.008104166667,1.23225218e-05
0.008125,1.213781616e-05
0.008145833333,1.193874505e-05
0.008166666667,1.171533313e-05
0.0081875,1.148742012e-05
0.008208333333,1.123898073e-05
0.008229166667,1.09888806e-05
0.00825,1.070060898e-05
0.008270833333,1.035503374e-05
0.008291666667,9.920497178e-06
0.0083125,9.38800622e-06
0.008333333333,8.798456292e-06
0.008354166667,8.177173186e-06
0.008375,7.570577964e-06
0.008395833333,6.956620382e-06
0.008416666667,6.310571735e-06
0.0084375,5.60910803e-06
0.008458333333,4.857140084e-06
0.008479166667,4.125566193e-06
0.0085,3.447682957e-06
0.008520833333,2.858425205e-06
0.008541666667,2.292514864e-06
0.0085625,1.689929832e-06
0.008583333333,9.976813544e-07
0.008604166667,2.26647515e-07
0.008625,-5.536278422e-07
0.008645833333,-1.305460387e-06
0.008666666667,-2.012660389e-06
0.0086875,-2.748766747e-06
0.008708333333,-3.566948408e-06
0.008729166667,-4.485566024e-06
0.00875,-5.452298865e-06
0.008770833333,-6.360846783e-06
0.008791666667,-7.169989203e-06
0.0088125,-7.863137398e-06
0.008833333333,-8.529387742e-06
0.008854166667,-9.211546967e-06
0.008875,-9.92895275e-06
0.008895833333,-1.062948468e-05
0.008916666667,-1.124048322e-05
0.0089375,-1.175879152e-05
0.008958333333,-1.22087913e-05
0.008979166667,-1.268891901e-05
0.009,-1.323742708e-05
0.009020833333,-1.385361702e-05
0.009041666667,-1.44826563e-05
0.0090625,-1.504922511e-05
0.009083333333,-1.555195922e-05
0.009104166667,-1.59872834e-05
0.009125,-1.641810377e-05
0.009145833333,-1.683569826e-05
0.009166666667,-1.722727757e-05
0.0091875,-1.754137884e-05
0.009208333333,-1.773700751e-05
0.009229166667,-1.782694198e-05
0.00925,-1.782201798e-05
0.009270833333,-1.778000296e-05
0.009291666667,-1.771172174e-05
0.0093125,-1.763552245e-05
0.009333333333,-1.754656114e-05
0.009354166667,-1.742915629e-05
0.009375,-1.72940745e-05
0.009395833333,-1.711669756e-05
0.009416666667,-1.69260602e-05
0.0094375,-1.670608435e-05
0.009458333333,-1.648329271e-05
0.009479166667,-1.623996286e-05
0.0095,-1.594831156e-05
0.009520833333,-1.557414726e-05
0.009541666667,-1.506539138e-05
0.0095625,-1.444490226e-05
0.009583333333,-1.373277701e-05
0.009604166667,-1.300113126e-05
0.009625,-1.227492885e-05
0.009645833333,-1.153321136e-05
0.009666666667,-1.074490046e-05
0.0096875,-9.857092664e-06
0.009708333333,-8.922886082e-06
0.009729166667,-7.989734513e-06
0.00975,-7.152108537e-06
0.009770833333,-6.405735803e-06
0.009791666667,-5.689611953e-06
0.0098125,-4.910328244e-06
0.009833333333,-3.996082341e-06
0.009854166667,-2.991691645e-06
0.009875,-1.958283292e-06
0.009895833333,-9.847401543e-07
0.009916666667,-5.105213319e-08
0.0099375,9.209633731e-07
0.009958333333,2.009304808e-06
0.009979166667,3.250501777e-06
0.01,4.671853276e-06
0.01002083333,6.121049864e-06
0.01004166667,7.24659867e-06
0.0100625,8.072503988e-06
0.01008333333,8.776212781e-06
0.01010416667,9.553265954e-06
0.010125,1.048435388e-05
0.01014583333,1.154078291e-05
0.01016666667,1.253893788e-05
0.0101875,1.337876165e-05
0.01020833333,1.406481078e-05
0.01022916667,1.472158601e-05
0.01025,1.545626583e-05
0.01027083333,1.633846477e-05
0.01029166667,1.732004421e-05
0.0103125,1.831611371e-05
0.01033333333,1.921142393e-05
0.01035416667,1.999837878e-05
0.010375,2.06382847e-05
0.01039583333,2.119790952e-05
0.01041666667,2.165589831e-05
0.0104375,2.203819167e-05
0.01045833333,2.239572677e-05
0.01047916667,2.273967402e-05
0.0105,2.30657588e-05
0.01052083333,2.335517638e-05
0.01054166667,2.355077049e-05
0.0105625,2.362604209e-05
0.01058333333,2.359030259e-05
0.01060416667,2.350176328e-05
0.010625,2.340946958e-05
0.01064583333,2.339701496e-05
0.01066666667,2.337982005e-05
0.0106875,2.337832302e-05
0.01070833333,2.328423579e-05
0.01072916667,2.312607467e-05
0.01075,2.285743176e-05
0.01077083333,2.247281373e-05
0.01079166667,2.20229249e-05
0.0108125,2.14756783e-05
0.01083333333,2.089636473e-05
0.01085416667,2.030430187e-05
0.010875,1.965034608e-05
0.01089583333,1.892394175e-05
0.01091666667,1.796862489e-05
0.0109375,1.690521458e-05
0.01095833333,1.573209738e-05
0.01097916667,1.472416443e-05
0.011,1.389670342e-05
0.01102083333,1.326237998e-05
0.01104166667,1.270186021e-05
0.0110625,1.193313528e-05
0.01108333333,1.09388493e-05
0.01110416667,9.733622392e-06
0.011125,8.475142749e-06
0.01114583333,7.345533504e-06
0.01116666667,6.327158644e-06
0.0111875,5.385834356e-06
0.01120833333,4.236128916e-06
0.01122916667,2.906728923e-06
0.01125,1.369663892e-06
0.01127083333,-1.559153304e-07
0.01129166667,-1.549974513e-06
0.0113125,-2.726694447e-06
0.01133333333,-3.746046332e-06
0.01135416667,-4.723840902e-06
0.011375,-5.716718078e-06
0.01139583333,-6.747542102e-06
0.01141666667,-7.807182556e-06
0.0114375,-8.854101907e-06
0.01145833333,-9.933874935e-06
0.01147916667,-1.094911386e-05
0.0115,-1.20187251e-05
0.01152083333,-1.298160714e-05
0.01154166667,-1.391834394e-05
0.0115625,-1.479087041e-05
0.01158333333,-1.567583786e-05
0.01160416667,-1.666886783e-05
0.011625,-1.768805669e-05
0.01164583333,-1.872307621e-05
0.01166666667,-1.966890159e-05
0.0116875,-2.038469029e-05
0.01170833333,-2.090934868e-05
0.01172916667,-2.122278784e-05
0.01175,-2.148762542e-05
0.01177083333,-2.172228596e-05
0.01179166667,-2.203237091e-05
0.0118125,-2.230884093e-05
0.01183333333,-2.259337452e-05
0.01185416667,-2.278421016e-05
0.011875,-2.286308336e-05
0.01189583333,-2.293553734e-05
0.01191666667,-2.296068487e-05
0.0119375,-2.304464215e-05
0.01195833333,-2.322448199e-05
0.01197916667,-2.33763094e-05
0.012,-2.351335024e-05
0.01202083333,-2.334529199e-05
0.01204166667,-2.294399746e-05
0.0120625,-2.224371565e-05
0.01208333333,-2.147542727e-05
0.01210416667,-2.065510489e-05
0.012125,-1.992459511e-05
0.01214583333,-1.937839806e-05
0.01216666667,-1.884650737e-05
0.0121875,-1.820037323e-05
0.01220833333,-1.744232759e-05
0.01222916667,-1.652627361e-05
0.01225,-1.565577804e-05
0.01227083333,-1.475945555e-05
0.01229166667,-1.396253356e-05
0.0123125,-1.314521069e-05
0.01233333333,-1.238246114e-05
0.01235416667,-1.14329232e-05
0.012375,-1.03655575e-05
0.01239583333,-9.207840776e-06
0.01241666667,-7.967268175e-06
0.0124375,-6.647997907e-06
0.01245833333,-5.404748208e-06
0.01247916667,-4.225013527e-06
0.0125,-3.115276513e-06
0.01252083333,-2.016258804e-06
0.01254166667,-8.896363397e-07
0.0125625,5.075340823e-07
0.01258333333,1.949587386e-06
0.01260416667,3.443244395e-06
0.012625,4.73929822e-06
0.01264583333,5.719446108e-06
0.01266666667,6.401873179e-06
0.0126875,7.031310815e-06
0.01270833333,7.792718861e-06
0.01272916667,8.823843018e-06
0.01275,1.007886112e-05
0.01277083333,1.150021581e-05
0.01279166667,1.263099512e-05
0.0128125,1.36172157e-05
0.01283333333,1.440714095e-05
0.01285416667,1.519335001e-05
0.012875,1.617102134e-05
0.01289583333,1.730704935e-05
0.01291666667,1.837084892e-05
0.0129375,1.922432966e-05
0.01295833333,1.973760664e-05
0.01297916667,1.996550782e-05
0.013,2.004740054e-05
0.01302083333,2.029867755e-05
0.01304166667,2.062547537e-05
0.0130625,2.1150061e-05
0.01308333333,2.156673509e-05
0.01310416667,2.180842057e-05
0.013125,2.192080319e-05
0.01314583333,2.191737076e-05
0.01316666667,2.18952955e-05
0.0131875,2.205704732e-05
0.01320833333,2.22348699e-05
0.01322916667,2.237421177e-05
0.01325,2.249635509e-05
0.01327083333,2.226344805e-05
0.01329166667,2.178423165e-05
0.0133125,2.145237886e-05
0.01333333333,2.085035521e-05
0.01335416667,2.044620487e-05
0.013375,2.002051042e-05
0.01339583333,1.93774431e-05
0.01341666667,1.860106022e-05
0.0134375,1.755544326e-05
0.01345833333,1.637544119e-05
0.01347916667,1.547700413e-05
0.0135,1.476292346e-05
0.01352083333,1.435635113e-05
0.01354166667,1.398190034e-05
0.0135625,1.356781286e-05
0.01358333333,1.277396586e-05
0.01360416667,1.17326008e-05
0.013625,1.048641661e-05
0.01364583333,9.328265151e-06
0.01366666667,8.309395525e-06
0.0136875,7.469395769e-06
0.01370833333,6.604045211e-06
0.01372916667,5.614298516e-06
0.01375,4.27862733e-06
0.01377083333,2.711316938e-06
0.01379166667,1.132992111e-06
0.0138125,-2.543610549e-07
0.01383333333,-1.246313332e-06
0.01385416667,-1.870450319e-06
0.013875,-2.476179361e-06
0.01389583333,-2.940102831e-06
0.01391666667,-3.667345027e-06
0.0139375,-4.691439244e-06
0.01395833333,-5.901171335e-06
0.01397916667,-7.250752788e-06
0.014,-8.451335816e-06
0.01402083333,-9.171988495e-06
0.01404166667,-9.595896699e-06
0.0140625,-9.848456102e-06
0.01408333333,-1.023851382e-05
0.01410416667,-1.099148994e-05
0.014125,-1.237616107e-05
0.01414583333,-1.387821248e-05
0.01416666667,-1.516789962e-05
0.0141875,-1.586344297e-05
0.01420833333,-1.573265399e-05
0.01422916667,-1.520198566e-05
0.01425,-1.492070623e-05
0.01427083333,-1.498942129e-05
0.01429166667,-1.57292834e-05
0.0143125,-1.668113873e-05
0.01433333333,-1.713795064e-05
0.01435416667,-1.674286432e-05
0.014375,-1.57097802e-05
0.01439583333,-1.454013091e-05
0.01441666667,-1.409829838e-05
0.0144375,-1.441959012e-05
0.01445833333,-1.568196421e-05
0.01447916667,-1.697252264e-05
0.0145,-1.782433174e-05
0.01452083333,-1.748244176e-05
0.01454166667,-1.602589691e-05
0.0145625,-1.399433313e-05
0.01458333333,-1.201767736e-05
0.01460416667,-1.066817458e-05
0.014625,-1.036366484e-05
0.01464583333,-1.052418065e-05
0.01466666667,-1.089715533e-05
0.0146875,-1.061764215e-05
0.01470833333,-9.556615623e-06
0.01472916667,-7.884123988e-06
0.01475,-6.274351563e-06
0.01477083333,-5.258567853e-06
0.01479166667,-5.087877526e-06
0.0148125,-5.542422059e-06
0.01483333333,-5.738209893e-06
0.01485416667,-4.67643622e-06
0.014875,-2.165246542e-06
0.01489583333,9.966630614e-07
0.01491666667,3.880931217e-06
0.0149375,5.417984539e-06
0.01495833333,4.991568858e-06
0.01497916667,3.490187282e-06
0.015,1.867440687e-06
0.01502083333,1.720525688e-06
0.01504166667,3.435926828e-06
0.0150625,6.581482012e-06
0.01508333333,1.021976459e-05
0.01510416667,1.314857764e-05
0.015125,1.429595068e-05
0.01514583333,1.41089522e-05
0.01516666667,1.311847609e-05
0.0151875,1.265439823e-05
0.01520833333,1.299946962e-05
0.01522916667,1.430115572e-05
0.01525,1.579688251e-05
0.01527083333,1.701415022e-05
0.01529166667,1.734275247e-05
0.0153125,1.683443043e-05
0.01533333333,1.625807818e-05
0.01535416667,1.63336299e-05
0.015375,1.71763495e-05
0.01539583333,1.9393412e-05
0.01541666667,2.179408148e-05
0.0154375,2.369728099e-05
0.01545833333,2.408731052e-05
0.01547916667,2.303853216e-05
0.0155,2.090658563e-05
0.01552083333,1.863687976e-05
0.01554166667,1.73988592e-05
0.0155625,1.741191227e-05
0.01558333333,1.844095823e-05
0.01560416667,1.971813072e-05
0.015625,2.014213896e-05
0.01564583333,1.980199158e-05
0.01566666667,1.861246892e-05
0.0156875,1.738460014e-05
0.01570833333,1.673208499e-05
0.01572916667,1.704655369e-05
0.01575,1.74006309e-05
0.01577083333,1.739042636e-05
0.01579166667,1.629489816e-05
0.0158125,1.411394715e-05
0.01583333333,1.175759826e-05
0.01585416667,9.877680895e-06
0.015875,9.093815606e-06
0.01589583333,9.215124919e-06
0.01591666667,9.391909771e-06
0.0159375,9.227278497e-06
0.01595833333,7.673256732e-06
0.01597916667,5.651776974e-06
0.016,3.378018164e-06
0.01602083333,1.716807674e-06
0.01604166667,6.926487686e-07
0.0160625,4.349425069e-07
0.01608333333,-8.761040249e-08
0.01610416667,-1.365029902e-06
0.016125,-3.031650294e-06
0.01614583333,-4.942908163e-06
0.01616666667,-6.369004041e-06
0.0161875,-7.327081676e-06
0.01620833333,-7.818079212e-06
0.01622916667,-8.040888133e-06
0.01625,-8.932351193e-06
0.01627083333,-1.051243453e-05
0.01629166667,-1.289843658e-05
0.0163125,-1.535352021e-05
0.01633333333,-1.750615047e-05
0.01635416667,-1.867050742e-05
0.016375,-1.903472548e-05
0.01639583333,-1.892646469e-05
0.01641666667,-1.844025974e-05
0.0164375,-1.832064663e-05
0.01645833333,-1.88719896e-05
0.01647916667,-2.042899723e-05
0.0165,-2.203176155e-05
0.01652083333,-2.323100489e-05
0.01654166667,-2.400172707e-05
0.0165625,-2.392772694e-05
0.01658333333,-2.40434365e-05
0.01660416667,-2.385666085e-05
0.016625,-2.474165558e-05
0.01664583333,-2.579034845e-05
0.01666666667,-2.685616892e-05
0.0166875,-2.726595812e-05
0.01670833333,-2.664891508e-05
0.01672916667,-2.555062383e-05
0.01675,-2.405122541e-05
0.01677083333,-2.298084837e-05
0.01679166667,-2.32206221e-05
0.0168125,-2.402094469e-05
0.01683333333,-2.47871285e-05
0.01685416667,-2.481514093e-05
0.016875,-2.355851575e-05
0.01689583333,-2.110163587e-05
0.01691666667,-1.871025779e-05
0.0169375,-1.702103691e-05
0.01695833333,-1.691566831e-05
0.01697916667,-1.772855467e-05
0.017,-1.898096889e-05
0.01702083333,-1.898169103e-05
0.01704166667,-1.755521043e-05
0.0170625,-1.506328863e-05
0.01708333333,-1.195665391e-05
0.01710416667,-9.630871318e-06
0.017125,-8.220474228e-06
0.01714583333,-7.5260823e-06
0.01716666667,-6.877749001e-06
0.0171875,-5.143461749e-06
0.01720833333,-2.738573357e-06
0.01722916667,2.845590643e-07
0.01725,2.670119102e-06
0.01727083333,4.100440492e-06
0.01729166667,4.187590093e-06
0.0173125,3.70678822e-06
0.01733333333,3.443520654e-06
0.01735416667,4.267013537e-06
0.017375,6.59903435e-06
0.01739583333,1.005523882e-05
0.01741666667,1.416711984e-05
0.0174375,1.786012763e-05
0.01745833333,2.012354889e-05
0.01747916667,2.105817839e-05
0.0175,2.099779522e-05
0.01752083333,2.021497858e-05
0.01754166667,2.047877024e-05
0.0175625,2.246362965e-05
0.01758333333,2.520053022e-05
0.01760416667,2.825021511e-05
0.017625,3.075508721e-05
0.01764583333,3.134873259e-05
0.01766666667,3.080688111e-05
0.0176875,3.030853077e-05
0.01770833333,3.095712236e-05
0.01772916667,3.284075865e-05
0.01775,3.572605783e-05
0.01777083333,3.811689749e-05
0.01779166667,3.842625301e-05
0.0178125,3.776294761e-05
0.01783333333,3.597388422e-05
0.01785416667,3.542832928e-05
0.017875,3.582730642e-05
0.01789583333,3.799170372e-05
0.01791666667,4.037487815e-05
0.0179375,4.20262586e-05
0.01795833333,4.260539572e-05
0.01797916667,4.171089677e-05
0.018,4.019497646e-05
0.01802083333,3.845024185e-05
0.01804166667,3.670845399e-05
0.0180625,3.624648161e-05
0.01808333333,3.555897638e-05
0.01810416667,3.544530045e-05
0.018125,3.477850623e-05
0.01814583333,3.434756218e-05
0.01816666667,3.393849693e-05
0.0181875,3.316713264e-05
0.01820833333,3.236988414e-05
0.01822916667,3.163675137e-05
0.01825,3.082551848e-05
0.01827083333,2.944053995e-05
0.01829166667,2.809362377e-05
0.0183125,2.57660613e-05
0.01833333333,2.350519753e-05
0.01835416667,2.175984446e-05
0.018375,1.940771836e-05
0.01839583333,1.789434282e-05
0.01841666667,1.613895984e-05
0.0184375,1.414738017e-05
0.01845833333,1.210310256e-05
0.01847916667,1.017799877e-05
0.0185,9.103362572e-06
0.01852083333,7.745032235e-06
0.01854166667,6.339982065e-06
0.0185625,3.523510941e-06
0.01858333333,8.642437592e-07
0.01860416667,-2.112863967e-06
0.018625,-4.997801625e-06
0.01864583333,-6.15737099e-06
0.01866666667,-7.084974641e-06
0.0186875,-7.651772648e-06
0.01870833333,-9.345394574e-06
0.01872916667,-1.172374414e-05
0.01875,-1.507709294e-05
0.01877083333,-1.809770765e-05
0.01879166667,-2.05122833e-05
0.0188125,-2.277916064e-05
0.01883333333,-2.371329174e-05
0.01885416667,-2.535086423e-05
0.018875,-2.688156383e-05
0.01889583333,-2.843037146e-05
0.01891666667,-3.035379632e-05
0.0189375,-3.137551539e-05
0.01895833333,-3.262509199e-05
0.01897916667,-3.352202475e-05
0.019,-3.446609117e-05
0.01902083333,-3.482534157e-05
0.01904166667,-3.591662244e-05
0.0190625,-3.724557246e-05
0.01908333333,-3.885660772e-05
0.01910416667,-4.10643479e-05
0.019125,-4.318570063e-05
0.01914583333,-4.450901906e-05
0.01916666667,-4.412899943e-05
0.0191875,-4.300883666e-05
0.01920833333,-4.163859194e-05
0.01922916667,-4.013289072e-05
0.01925,-4.121540769e-05
0.01927083333,-4.286535477e-05
0.01929166667,-4.470967542e-05
0.0193125,-4.572587932e-05
0.01933333333,-4.448861728e-05
0.01935416667,-4.185046419e-05
0.019375,-3.912207467e-05
0.01939583333,-3.742097761e-05
0.01941666667,-3.729695527e-05
0.0194375,-3.84580926e-05
0.01945833333,-3.993857172e-05
0.01947916667,-4.00474928e-05
0.0195,-3.857330012e-05
0.01952083333,-3.546557127e-05
0.01954166667,-3.243908577e-05
0.0195625,-2.96902017e-05
0.01958333333,-2.843009315e-05
0.01960416667,-2.78884545e-05
0.019625,-2.773024244e-05
0.01964583333,-2.694880641e-05
0.01966666667,-2.481799856e-05
0.0196875,-2.229120219e-05
0.01970833333,-1.858988617e-05
0.01972916667,-1.495350352e-05
0.01975,-1.255812458e-05
0.01977083333,-1.08339982e-05
0.01979166667,-1.161070486e-05
0.0198125,-1.211012204e-05
0.01983333333,-1.181483458e-05
0.01985416667,-9.703961041e-06
0.019875,-4.901596185e-06
0.01989583333,1.437940114e-06
0.01991666667,7.100737093e-06
0.0199375,1.0870408e-05
0.01995833333,1.160792999e-05
0.01997916667,8.899540262e-06
0.02,-7.359125448e-05
0.02002083333,-7.369599189e-05
0.02004166667,-7.08722946e-05
0.0200625,-6.575360021e-05
0.02008333333,-6.078270235e-05
0.02010416667,-5.87535651e-05
0.020125,-6.039925211e-05
0.02014583333,-6.393996591e-05
0.02016666667,-6.775242946e-05
0.0201875,-6.812693027e-05
0.02020833333,-6.488368672e-05
0.02022916667,-6.094632772e-05
0.02025,-5.804111424e-05
0.02027083333,-5.961610441e-05
0.02029166667,-6.536622823e-05
0.0203125,-7.215866935e-05
0.02033333333,-7.774791447e-05
0.02035416667,-7.921380893e-05
0.020375,-7.76044908e-05
0.02039583333,-7.488818665e-05
0.02041666667,-7.514191384e-05
0.0204375,-7.820565224e-05
0.02045833333,-8.398729551e-05
0.02047916667,-9.09648079e-05
0.0205,-9.612638678e-05
0.02052083333,-9.895006951e-05
0.02054166667,-9.97180905e-05
0.0205625,-0.0001005677186
0.02058333333,-0.0001027876133
0.02060416667,-0.0001077852939
0.020625,-0.0001136211795
0.02064583333,-0.0001200434926
0.02066666667,-0.0001262607111
0.0206875,-0.0001298851421
0.02070833333,-0.0001331693202
0.02072916667,-0.0001355104323
0.02075,-0.0001382990449
0.02077083333,-0.0001432380668
0.02079166667,-0.000149169733
0.0208125,-0.0001557188079
0.02083333333,-0.0001618218957
0.02085416667,-0.0001667027245
0.020875,-0.0001705740724
0.02089583333,-0.0001741354354
0.02091666667,-0.0001783036423
0.0209375,-0.0001830575493
0.02095833333,-0.0001887596591
0.02097916667,-0.0001958005305
0.021,-0.0002028934541
0.02102083333,-0.0002090019261
0.02104166667,-0.0002138975688
0.0210625,-0.0002166644699
0.02108333333,-0.0002202743781
0.02110416667,-0.0002249845857
0.021125,-0.0002307620016
0.02114583333,-0.0002384930413
0.02116666667,-0.0002466764417
0.0211875,-0.0002554149833
0.02120833333,-0.0002619187871
0.02122916667,-0.0002667453955
0.02125,-0.0002706211526
0.02127083333,-0.0002741431526
0.02129166667,-0.0002786892292
0.0213125,-0.0002843639231
0.02133333333,-0.0002902395499
0.02135416667,-0.0002953815565
0.021375,-0.0002998405544
0.02139583333,-0.0003040441661
0.02141666667,-0.0003097178706
0.0214375,-0.0003158784239
0.02145833333,-0.0003227143607
0.02147916667,-0.0003302147088
0.0215,-0.0003361650743
0.02152083333,-0.0003409615019
0.02154166667,-0.0003447157214
0.0215625,-0.0003478993895
0.02158333333,-0.0003519200545
0.02160416667,-0.0003571310372
0.021625,-0.0003629633284
0.02164583333,-0.0003689174482
0.02166666667,-0.0003755262587
0.0216875,-0.0003804977168
0.02170833333,-0.0003852912632
0.02172916667,-0.0003892691166
0.02175,-0.00039327165
0.02177083333,-0.0003979999747
0.02179166667,-0.0004021896748
0.0218125,-0.0004065133398
0.02183333333,-0.0004110544687
0.02185416667,-0.0004140342644
0.021875,-0.0004170826578
0.02189583333,-0.0004192125634
0.02191666667,-0.0004226579913
0.0219375,-0.000429302745
0.02195833333,-0.000436912931
0.02197916667,-0.0004464504309
0.022,-0.000455736008
0.02202083333,-0.0004608976888
0.02204166667,-0.0004628524766
0.0220625,-0.0004630408075
0.02208333333,-0.0004624434514
0.02210416667,-0.0004654007498
0.022125,-0.0004721533624
0.02214583333,-0.0004789293453
0.02216666667,-0.0004870999546
0.0221875,-0.0004910651478
0.02220833333,-0.0004914128222
0.02222916667,-0.0004893349833
0.02225,-0.0004872000427
0.02227083333,-0.0004917288898
0.02229166667,-0.0005024013808
0.0223125,-0.0005161268637
0.02233333333,-0.0005274594296
0.02235416667,-0.0005324780941
0.022375,-0.0005298518809
0.02239583333,-0.0005217055441
0.02241666667,-0.0005159396096
0.0224375,-0.0005166599876
0.02245833333,-0.0005257886951
0.02247916667,-0.0005397756468
0.0225,-0.0005513747456
0.02252083333,-0.0005559155252
0.02254166667,-0.0005536290701
0.0225625,-0.0005475998623
0.02258333333,-0.0005425420823
0.02260416667,-0.0005419795634
0.022625,-0.0005472319317
0.02264583333,-0.0005547310575
0.02266666667,-0.0005613302346
0.0226875,-0.0005651700776
0.02270833333,-0.0005667607766
0.02272916667,-0.0005671916879
0.02275,-0.0005672571133
0.02277083333,-0.0005685486831
0.02279166667,-0.0005721576163
0.0228125,-0.0005779571948
0.02283333333,-0.0005828671274
0.02285416667,-0.0005875130882
0.022875,-0.0005899916287
0.02289583333,-0.0005876583746
0.02291666667,-0.0005843543913
0.0229375,-0.0005820502411
0.02295833333,-0.000582917477
0.02297916667,-0.0005889178719
0.023,-0.0005970894708
0.02302083333,-0.0006035689148
0.02304166667,-0.0006059589796
0.0230625,-0.0006028276403
0.02308333333,-0.0005975138047
0.02310416667,-0.0005952342763
0.023125,-0.0005969217164
0.02314583333,-0.0006018805434
0.02316666667,-0.0006082393229
0.0231875,-0.0006134975119
0.02320833333,-0.0006124181091
0.02322916667,-0.0006102802581
0.02325,-0.0006074005505
0.02327083333,-0.000606214162
0.02329166667,-0.0006080107414
0.0233125,-0.0006118208985
0.02333333333,-0.0006162366481
0.02335416667,-0.0006179069751
0.023375,-0.0006170494016
0.02339583333,-0.0006130535039
0.02341666667,-0.0006082507316
0.0234375,-0.0006041958113
0.02345833333,-0.0006019086577
0.02347916667,-0.000604004832
0.0235,-0.0006086728536
0.02352083333,-0.0006158144679
0.02354166667,-0.00062212185
0.0235625,-0.0006250439328
0.02358333333,-0.0006246600533
0.02360416667,-0.0006222267402
0.023625,-0.0006192450528
0.02364583333,-0.0006191888824
0.02366666667,-0.0006228006678
0.0236875,-0.0006271537277
0.02370833333,-0.0006351163029
0.02372916667,-0.0006398878759
0.02375,-0.0006406118046
0.02377083333,-0.0006376216188
0.02379166667,-0.0006334108184
0.0238125,-0.0006297271466
0.02383333333,-0.0006340277614
0.02385416667,-0.0006406995817
0.023875,-0.0006473764661
0.02389583333,-0.0006524492637
0.02391666667,-0.0006511161919
0.0239375,-0.0006467080675
0.02395833333,-0.0006433067028
0.02397916667,-0.0006428125198
0.024,-0.0006473425892
0.02402083333,-0.0006541256444
0.02404166667,-0.0006586009404
0.0240625,-0.0006605824456
0.02408333333,-0.0006589669501
0.02410416667,-0.0006545434007
0.024125,-0.0006515304558
0.02414583333,-0.0006501043681
0.02416666667,-0.0006515393034
0.0241875,-0.0006555385189
0.02420833333,-0.0006613478763
0.02422916667,-0.0006669557188
0.02425,-0.0006707484135
0.02427083333,-0.0006712895702
0.02429166667,-0.0006685503176
0.0243125,-0.0006655611796
0.02433333333,-0.0006623332156
0.02435416667,-0.0006595955347
0.024375,-0.0006592322025
0.02439583333,-0.0006586400559
0.02441666667,-0.0006564546493
0.0244375,-0.0006554357242
0.02445833333,-0.0006556234439
0.02447916667,-0.0006581949419
0.0245,-0.0006634607562
0.02452083333,-0.0006689361762
0.02454166667,-0.0006695696502
0.0245625,-0.000669577159
0.02458333333,-0.0006675741752
0.02460416667,-0.0006639619824
0.024625,-0.0006604137016
0.02464583333,-0.0006572832935
0.02466666667,-0.0006526992074
0.0246875,-0.0006486698985
0.02470833333,-0.0006447711494
0.02472916667,-0.0006420171703
0.02475,-0.0006412543589
0.02477083333,-0.0006390733179
0.02479166667,-0.0006385009037
0.0248125,-0.0006387123722
0.02483333333,-0.0006403552834
0.02485416667,-0.0006432071677
0.024875,-0.0006461435114
0.02489583333,-0.0006436859258
0.02491666667,-0.0006335049984
0.0249375,-0.0006197447074
0.02495833333,-0.0006034893449
0.02497916667,-0.0005902062403
0.025,-0.0005829017609
0.02502083333,-0.0005780319334
0.02504166667,-0.0005755724851
0.0250625,-0.0005712580751
0.02508333333,-0.0005632737884
0.02510416667,-0.0005536521785
0.025125,-0.0005429015728
0.02514583333,-0.0005291398847
0.02516666667,-0.0005159068387
0.0251875,-0.0005043550045
0.02520833333,-0.0004922672524
0.02522916667,-0.0004864720977
0.02525,-0.0004792162217
0.02527083333,-0.0004730093642
0.02529166667,-0.0004676200333
0.0253125,-0.0004641357227
0.02533333333,-0.0004599062959
0.02535416667,-0.0004559727095
0.025375,-0.0004493466113
0.02539583333,-0.0004392914125
0.02541666667,-0.0004237316898
0.0254375,-0.0004053692392
0.02545833333,-0.0003831724753
0.02547916667,-0.0003641613293
0.0255,-0.0003489638621
0.02552083333,-0.0003385955933
0.02554166667,-0.0003278564545
0.0255625,-0.0003190030111
0.02558333333,-0.0003059825394
0.02560416667,-0.0002898848907
0.025625,-0.0002736153256
0.02564583333,-0.0002540058922
0.02566666667,-0.000235998712
0.0256875,-0.0002195594279
0.02570833333,-0.0002075169759
0.02572916667,-0.0002018299856
0.02575,-0.0001952464372
0.02577083333,-0.0001845916267
0.02579166667,-0.0001690765785
0.0258125,-0.00014686746
0.02583333333,-0.0001224019798
0.02585416667,-9.73214992e-05
0.025875,-7.232905045e-05
0.02589583333,-4.673605508e-05
0.02591666667,-2.540874448e-05
0.0259375,-8.285429431e-06
0.02595833333,9.916103409e-06
0.02597916667,2.134066199e-05
0.026,2.962785584e-05
0.02602083333,4.104386244e-05
0.02604166667,5.502159911e-05
0.0260625,6.74647963e-05
0.02608333333,8.067944873e-05
0.02610416667,9.063227481e-05
0.026125,0.0001033557273
0.02614583333,0.0001167561495
0.02616666667,0.0001326259226
0.0261875,0.0001477835758
0.02620833333,0.0001601340336
0.02622916667,0.0001661756687
0.02625,0.0001761201274
0.02627083333,0.0001887505059
0.02629166667,0.0002124778839
0.0263125,0.0002375402255
0.02633333333,0.0002635081764
0.02635416667,0.0002778887283
0.026375,0.0002851688478
0.02639583333,0.0002876764338
0.02641666667,0.0002961005957
0.0264375,0.0003090739774
0.02645833333,0.0003327581508
0.02647916667,0.0003538084566
0.0265,0.0003726021678
0.02652083333,0.000382269267
0.02654166667,0.000388835062
0.0265625,0.0003923359036
0.02658333333,0.0003981924092
0.02660416667,0.0004080378858
0.026625,0.0004215326917
0.02664583333,0.0004393904819
0.02666666667,0.0004619912943
0.0266875,0.0004810299724
0.02670833333,0.000497094763
0.02672916667,0.0005078798858
0.02675,0.0005184797337
0.02677083333,0.000537276268
0.02679166667,0.0005706494558
0.0268125,0.0006083421758
0.02683333333,0.0006424696185
0.02685416667,0.0006632870063
0.026875,0.0006694112672
0.02689583333,0.0006721552345
0.02691666667,0.0006792111672
0.0269375,0.0006950051174
0.02695833333,0.0007177571533
0.02697916667,0.0007338525611
0.027,0.0007402648916
0.02702083333,0.0007460174384
0.02704166667,0.0007648643223
0.0270625,0.0007910740678
0.02708333333,0.0008293391438
0.02710416667,0.000862777466
0.027125,0.0008901832625
0.02714583333,0.0009090755484
0.02716666667,0.0009295404889
0.0271875,0.0009600894409
0.02720833333,0.0009960741736
0.02722916667,0.001032524393
0.02725,0.001068120706
0.02727083333,0.001092520659
0.02729166667,0.001112008118
0.0273125,0.001119746594
0.02733333333,0.001123253372
0.02735416667,0.00112234347
0.027375,0.001133144367
0.02739583333,0.001157399733
0.02741666667,0.001202185871
0.0274375,0.001253123279
0.02745833333,0.001304002013
0.02747916667,0.001338526723
0.0275,0.001367279678
0.02752083333,0.001396202017
0.02754166667,0.001443587593
0.0275625,0.001500143902
0.02758333333,0.001556638861
0.02760416667,0.001586621162
0.027625,0.001595800044
0.02764583333,0.001601179712
0.02766666667,0.001620319556
0.0276875,0.001662805094
0.02770833333,0.00172361359
0.02772916667,0.001782858744
0.02775,0.00182331726
0.02777083333,0.001837344025
0.02779166667,0.001837476622
0.0278125,0.001837999094
0.02783333333,0.001856078394
0.02785416667,0.001880442142
0.027875,0.001907577389
0.02789583333,0.00193799939
0.02791666667,0.001972776139
0.0279375,0.002019783482
0.02795833333,0.002078461926
0.02797916667,0.002124742838
0.028,0.002155255759
0.02802083333,0.002183901612
0.02804166667,0.00220643729
0.0280625,0.002236977685
0.02808333333,0.002276602667
0.02810416667,0.002312627621
0.028125,0.002351918491
0.02814583333,0.002390060108
0.02816666667,0.002434064168
0.0281875,0.0024792396
0.02820833333,0.002508568112
0.02822916667,0.002506548306
0.02825,0.002474765526
0.02827083333,0.002444986952
0.02829166667,0.002449874533
0.0283125,0.002504150849
0.02833333333,0.002593491925
0.02835416667,0.002683443483
0.028375,0.002759409137
0.02839583333,0.002801234135
0.02841666667,0.002826089505
0.0284375,0.002836598549
0.02845833333,0.002850052202
0.02847916667,0.002858829917
0.0285,0.002860918874
0.02852083333,0.002853585407
0.02854166667,0.002840464236
0.0285625,0.002842875198
0.02858333333,0.002859131899
0.02860416667,0.002881367924
0.028625,0.002910868265
0.02864583333,0.002945775632
0.02866666667,0.00297940406
0.0286875,0.002999320393
0.02870833333,0.002994521987
0.02872916667,0.002956972457
0.02875,0.002907200716
0.02877083333,0.002893757774
0.02879166667,0.002919540275
0.0288125,0.00299298577
0.02883333333,0.003062073141
0.02885416667,0.003080991097
0.028875,0.003031514585
0.02889583333,0.00294383592
0.02891666667,0.002866565948
0.0289375,0.002859337488
0.02895833333,0.002923680469
0.02897916667,0.002987876302
0.029,0.003011547728
0.02902083333,0.003007186344
0.02904166667,0.002973451978
0.0290625,0.002966919448
0.02908333333,0.002974003553
0.02910416667,0.002994410461
0.029125,0.002976038028
0.02914583333,0.002943884348
0.02916666667,0.002902012551
0.0291875,0.002873688471
0.02920833333,0.002878558822
0.02922916667,0.002881516004
0.02925,0.002879510168
0.02927083333,0.002884377027
0.02929166667,0.002921884879
0.0293125,0.003008976812
0.02933333333,0.003112530336
0.02935416667,0.003194384277
0.029375,0.003179386258
0.02939583333,0.003119516419
0.02941666667,0.003068920458
0.0294375,0.003081666771
0.02945833333,0.003168842522
0.02947916667,0.003231315641
0.0295,0.003230656264
0.02952083333,0.003143890761
0.02954166667,0.003034852911
0.0295625,0.003031610278
0.02958333333,0.00318772532
0.02960416667,0.00345016364
0.029625,0.003699512919
0.02964583333,0.003854342271
0.02966666667,0.003901405726
0.0296875,0.003883477533
0.02970833333,0.00388365984
0.02972916667,0.003882284043
0.02975,0.003877056297
0.02977083333,0.003816539422
0.02979166667,0.003856864525
0.0298125,0.004059025552
0.02983333333,0.004485998768
0.02985416667,0.004854030907
0.029875,0.004923329689
0.02989583333,0.004571470898
0.02991666667,0.003829219844
0.0299375,0.003211713396
0.02995833333,0.003206620226
0.02997916667,0.003778375918
0.03,0.006312286481
0.03002083333,0.006892947014
0.03004166667,0.006898462307
0.0300625,0.006272990257
0.03008333333,0.005516781006
0.03010416667,0.005155265797
0.030125,0.005232636351
0.03014583333,0.005619874224
0.03016666667,0.006078564562
0.0301875,0.006301311776
0.03020833333,0.006358406041
0.03022916667,0.006304364186
0.03025,0.006314110477
0.03027083333,0.006322768051
0.03029166667,0.006337342784
0.0303125,0.006332887337
0.03033333333,0.006408830173
0.03035416667,0.006596435793
0.030375,0.006903157104
0.03039583333,0.007220706437
0.03041666667,0.007423670962
0.0304375,0.007434883621
0.03045833333,0.007322946563
0.03047916667,0.007232603617
0.0305,0.007246326189
0.03052083333,0.007332987152
0.03054166667,0.007452971302
0.0305625,0.007483574096
0.03058333333,0.007441712078
0.03060416667,0.007383850869
0.030625,0.007382374723
0.03064583333,0.007494234946
0.03066666667,0.007639177609
0.0306875,0.007762063295
0.03070833333,0.007832260802
0.03072916667,0.00786193274
0.03075,0.007881289348
0.03077083333,0.007892941125
0.03079166667,0.007899492979
0.0308125,0.007852734067
0.03083333333,0.00778615009
0.03085416667,0.00773073826
0.030875,0.007702441886
0.03089583333,0.007731467951
0.03091666667,0.007750963327
0.0309375,0.007749939337
0.03095833333,0.007706088945
0.03097916667,0.007689152379
0.031,0.007709476165
0.03102083333,0.007779884152
0.03104166667,0.007854228839
0.0310625,0.007834846154
0.03108333333,0.007722808979
0.03110416667,0.007590797264
0.031125,0.007509089075
0.03114583333,0.00751631707
0.03116666667,0.007586724591
0.0311875,0.007660157047
0.03120833333,0.007672557142
0.03122916667,0.007631542161
0.03125,0.007541381288
0.03127083333,0.007469321135
0.03129166667,0.007429581136
0.0313125,0.00742552802
0.03133333333,0.007437749766
0.03135416667,0.007456284016
0.031375,0.007470262703
0.03139583333,0.007481507957
0.03141666667,0.007485011127
0.0314375,0.007465589326
0.03145833333,0.007411901373
0.03147916667,0.007370886393
0.0315,0.007331095636
0.03152083333,0.007304830477
0.03154166667,0.007275009528
0.0315625,0.007255811244
0.03158333333,0.007255460136
0.03160416667,0.00729916757
0.031625,0.007395095658
0.03164583333,0.007514070254
0.03166666667,0.007623427082
0.0316875,0.007678038441
0.03170833333,0.007648825645
0.03172916667,0.007566943765
0.03175,0.007471350487
0.03177083333,0.007438243367
0.03179166667,0.007447817829
0.0318125,0.007492467761
0.03183333333,0.007522562984
0.03185416667,0.007548215333
0.031875,0.007568249945
0.03189583333,0.007600171026
0.03191666667,0.007635251153
0.0319375,0.007669141516
0.03195833333,0.007677660789
0.03197916667,0.007698555477
0.032,0.00771108456
0.03202083333,0.007760001812
0.03204166667,0.007814083248
0.0320625,0.007854396477
0.03208333333,0.007867067121
0.03210416667,0.007889231667
0.032125,0.007904293947
0.03214583333,0.00792555511
0.03216666667,0.007922332734
0.0321875,0.007888214663
0.03220833333,0.007837959565
0.03222916667,0.007813082077
0.03225,0.007832603529
0.03227083333,0.007909595035
0.03229166667,0.00799693726
0.0323125,0.00805548951
0.03233333333,0.00805491209
0.03235416667,0.00802377332
0.032375,0.008006748743
0.03239583333,0.008025387302
0.03241666667,0.008106496185
0.0324375,0.008183340542
0.03245833333,0.008235071786
0.03247916667,0.008246280253
0.0325,0.008260139264
0.03252083333,0.008293072693
0.03254166667,0.008361395448
0.0325625,0.008426114917
0.03258333333,0.008479872718
0.03260416667,0.008470345289
0.032625,0.008439956233
0.03264583333,0.008379399776
0.03266666667,0.008342512883
0.0326875,0.008314178325
0.03270833333,0.008311558515
0.03272916667,0.008308304474
0.03275,0.008342424408
0.03277083333,0.008357360028
0.03279166667,0.008390146308
0.0328125,0.008395349607
0.03283333333,0.008396909572
0.03285416667,0.008387375623
0.032875,0.00840851292
0.03289583333,0.008431866765
0.03291666667,0.00847735256
0.0329375,0.008476641029
0.03295833333,0.008472560905
0.03297916667,0.008409705944
0.033,0.008366172202
0.03302083333,0.008337780833
0.03304166667,0.008340104483
0.0330625,0.008309057914
0.03308333333,0.008254697546
0.03310416667,0.008178450167
0.033125,0.008126263507
0.03314583333,0.008101117797
0.03316666667,0.008136682212
0.0331875,0.00816517137
0.03320833333,0.008197543211
0.03322916667,0.008161602542
0.03325,0.008118910715
0.03327083333,0.008057995699
0.03329166667,0.008019682951
0.0333125,0.007982263342
0.03333333333,0.00795816537
0.03335416667,0.007911751047
0.033375,0.007860292681
0.03339583333,0.007780975197
0.03341666667,0.007708076853
0.0334375,0.007616942283
0.03345833333,0.007547373883
0.03347916667,0.007481339388
0.0335,0.00745704351
0.03352083333,0.007431655191
0.03354166667,0.007401394658
0.0335625,0.007327672094
0.03358333333,0.007225416601
0.03360416667,0.007121626288
0.033625,0.007039844524
0.03364583333,0.006984130479
0.03366666667,0.006965907291
0.0336875,0.006930125412
0.03370833333,0.006891950034
0.03372916667,0.006803905126
0.03375,0.006709202193
0.03377083333,0.006614175625
0.03379166667,0.006534290966
0.0338125,0.006478956435
0.03383333333,0.006411866285
0.03385416667,0.006340339314
0.033875,0.006270942744
0.03389583333,0.006199460477
0.03391666667,0.006137013435
0.0339375,0.006076043937
0.03395833333,0.006008311175
0.03397916667,0.005935366731
0.034,0.005831858609
0.03402083333,0.005759531632
0.03404166667,0.005697455257
0.0340625,0.005655237008
0.03408333333,0.005612347741
0.03410416667,0.005605130456
0.034125,0.005577819422
0.03414583333,0.005569722038
0.03416666667,0.005549950991
0.0341875,0.005536535755
0.03420833333,0.005495144054
0.03422916667,0.005458335858
0.03425,0.005384506192
0.03427083333,0.005321155302
0.03429166667,0.005244296975
0.0343125,0.005198089406
0.03433333333,0.005140732974
0.03435416667,0.005098526366
0.034375,0.005065787584
0.03439583333,0.005068432074
0.03441666667,0.005051704124
0.0344375,0.005037406925
0.03445833333,0.004996930715
0.03447916667,0.004960489459
0.0345,0.004919795319
0.03452083333,0.004905161913
0.03454166667,0.004902893677
0.0345625,0.004907251801
0.03458333333,0.004898960702
0.03460416667,0.004876115825
0.034625,0.004813928157
0.03464583333,0.004762256984
0.03466666667,0.004690078553
0.0346875,0.004643141758
0.03470833333,0.004584484268
0.03472916667,0.004543350544
0.03475,0.004487200174
0.03477083333,0.004454814829
0.03479166667,0.004425379448
0.0348125,0.004410311114
0.03483333333,0.004373051226
0.03485416667,0.004354478791
0.034875,0.004286959302
0.03489583333,0.004247472622
0.03491666667,0.004195001442
0.0349375,0.004170408938
0.03495833333,0.004141916521
0.03497916667,0.004131388851
0.035,0.004084625281
0.03502083333,0.00404435955
0.03504166667,0.003982392605
0.0350625,0.00391276693
0.03508333333,0.0038346441
0.03510416667,0.003751260694
0.035125,0.003644242184
0.03514583333,0.003555876436
0.03516666667,0.00345467194
0.0351875,0.003354886547
0.03520833333,0.003257573349
0.03522916667,0.003159559099
0.03525,0.003054452129
0.03527083333,0.002951959614
0.03529166667,0.002834195737
0.0353125,0.002725966275
0.03533333333,0.002632216783
0.03535416667,0.002531581093
0.035375,0.002468590159
0.03539583333,0.002374823904
0.03541666667,0.002275024308
0.0354375,0.002172401175
0.03545833333,0.002069236012
0.03547916667,0.001941694762
0.0355,0.001859330921
0.03552083333,0.001751964795
0.03554166667,0.001646541292
0.0355625,0.001497512916
0.03558333333,0.001414517174
0.03560416667,0.001247823471
0.035625,0.001162136672
0.03564583333,0.00102677953
0.03566666667,0.0009298573714
0.0356875,0.0008146378677
0.03570833333,0.0007244296139
0.03572916667,0.0005915408256
0.03575,0.0004772598913
0.03577083333,0.0003215089382
0.03579166667,0.0001995159837
0.0358125,3.674678737e-05
0.03583333333,-8.586424519e-05
0.03585416667,-0.0002255248983
0.035875,-0.0003015020338
0.03589583333,-0.0004189004248
0.03591666667,-0.0004902482615
0.0359375,-0.0006288712611
0.03595833333,-0.0007607403095
0.03597916667,-0.000922218489
0.036,-0.001049219631
0.03602083333,-0.001193739939
0.03604166667,-0.001282710116
0.0360625,-0.001406283583
0.03608333333,-0.001488592708
0.03610416667,-0.001616508234
0.036125,-0.001709345495
0.03614583333,-0.001835989417
0.03616666667,-0.001916793641
0.0361875,-0.002004065318
0.03620833333,-0.00210053823
0.03622916667,-0.002206853125
0.03625,-0.00230870652
0.03627083333,-0.002418242395
0.03629166667,-0.0025104878
0.0363125,-0.002612554235
0.03633333333,-0.002701200312
0.03635416667,-0.002809536643
0.036375,-0.002883594483
0.03639583333,-0.002969260793
0.03641666667,-0.003043900011
0.0364375,-0.003138039028
0.03645833333,-0.003238937585
0.03647916667,-0.003317043185
0.0365,-0.003381364513
0.03652083333,-0.003457504557
0.03654166667,-0.00348989456
0.0365625,-0.003563574981
0.03658333333,-0.003604336409
0.03660416667,-0.003598582931
0.036625,-0.003619981231
0.03664583333,-0.003590437118
0.03666666667,-0.003610565327
0.0366875,-0.003691789461
0.03670833333,-0.00377609022
0.03672916667,-0.003853140166
0.03675,-0.003877993207
0.03677083333,-0.003900430398
0.03679166667,-0.003902152181
0.0368125,-0.003939893097
0.03683333333,-0.004003315233
0.03685416667,-0.004068131093
0.036875,-0.004134011921
0.03689583333,-0.004188718274
0.03691666667,-0.004208630882
0.0369375,-0.004233057611
0.03695833333,-0.004268334713
0.03697916667,-0.004300259519
0.037,-0.004365043249
0.03702083333,-0.00440023141
0.03704166667,-0.004470570944
0.0370625,-0.004546169192
0.03708333333,-0.004651655443
0.03710416667,-0.004760219716
0.037125,-0.004879384767
0.03714583333,-0.004935410805
0.03716666667,-0.004996736068
0.0371875,-0.005021620542
0.03720833333,-0.005103460513
0.03722916667,-0.005181263201
0.03725,-0.005321729463
0.03727083333,-0.005442789756
0.03729166667,-0.00558073679
0.0373125,-0.005660438444
0.03733333333,-0.005781647749
0.03735416667,-0.005869632121
0.037375,-0.005998880602
0.03739583333,-0.006080361083
0.03741666667,-0.006187700666
0.0374375,-0.00629569497
0.03745833333,-0.00646347506
0.03747916667,-0.006649621762
0.0375,-0.00688174786
0.03752083333,-0.007090236992
0.03754166667,-0.007276413962
0.0375625,-0.007405203767
0.03758333333,-0.007558038458
0.03760416667,-0.00771090202
0.037625,-0.007949247956
0.03764583333,-0.008185422048
0.03766666667,-0.008484800346
0.0376875,-0.008740760386
0.03770833333,-0.009025780484
0.03772916667,-0.009250094183
0.03775,-0.00946585089
0.03777083333,-0.009609850124
0.03779166667,-0.00980046764
0.0378125,-0.00997771509
0.03783333333,-0.01020009629
0.03785416667,-0.0104387477
0.037875,-0.010694867
0.03789583333,-0.01092073321
0.03791666667,-0.01113942079
0.0379375,-0.01135253627
0.03795833333,-0.01160505228
0.03797916667,-0.01184109226
0.038,-0.01210997347
0.03802083333,-0.01230064034
0.03804166667,-0.01251225732
0.0380625,-0.0127257742
0.03808333333,-0.012977615
0.03810416667,-0.01323216408
0.038125,-0.01347556338
0.03814583333,-0.01366170403
0.03816666667,-0.01381622721
0.0381875,-0.01392112207
0.03820833333,-0.01404194254
0.03822916667,-0.01417094283
0.03825,-0.01434701309
0.03827083333,-0.01451425813
0.03829166667,-0.01466585323
0.0383125,-0.01478250884
0.03833333333,-0.01488739345
0.03835416667,-0.01497822814
0.038375,-0.01507637836
0.03839583333,-0.01515052654
0.03841666667,-0.01520520076
0.0384375,-0.01524541155
0.03845833333,-0.01529895235
0.03847916667,-0.01533443853
0.0385,-0.01537329517
0.03852083333,-0.01540028304
0.03854166667,-0.01540503837
0.0385625,-0.01538018789
0.03858333333,-0.01536315493
0.03860416667,-0.01536856778
0.038625,-0.01537497155
0.03864583333,-0.01536851004
0.03866666667,-0.01535064634
0.0386875,-0.01529688202
0.03870833333,-0.01523133554
0.03872916667,-0.01520061865
0.03875,-0.0151799107
0.03877083333,-0.01517435443
0.03879166667,-0.01514795795
0.0388125,-0.01510829944
0.03883333333,-0.01506785303
0.03885416667,-0.0150601659
0.038875,-0.01505215932
0.03889583333,-0.01506234054
0.03891666667,-0.01505179796
0.0389375,-0.01503190771
0.03895833333,-0.0150014041
0.03897916667,-0.01499976404
0.039,-0.01501670759
0.03902083333,-0.01505398937
0.03904166667,-0.01505921222
0.0390625,-0.01506885607
0.03908333333,-0.01503650658
0.03910416667,-0.01503369398
0.039125,-0.01500557456
0.03914583333,-0.01502115279
0.03916666667,-0.01501500979
0.0391875,-0.01506012678
0.03920833333,-0.01507315412
0.03922916667,-0.01514479611
0.03925,-0.01521353237
0.03927083333,-0.0153248962
0.03929166667,-0.01541766152
0.0393125,-0.01552503929
0.03933333333,-0.01557721011
0.03935416667,-0.01564374194
0.039375,-0.01571576111
0.03939583333,-0.01582933217
0.03941666667,-0.01590969414
0.0394375,-0.01603764109
0.03945833333,-0.01614480279
0.03947916667,-0.01624668576
0.0395,-0.0163385421
0.03952083333,-0.01645376161
0.03954166667,-0.01655276492
0.0395625,-0.01672197133
0.03958333333,-0.01685179397
0.03960416667,-0.01704022661
0.039625,-0.01717840321
0.03964583333,-0.01735862903
0.03966666667,-0.01752154529
0.0396875,-0.01766760647
0.03970833333,-0.01780811138
0.03972916667,-0.01795513183
0.03975,-0.01808584854
0.03977083333,-0.01824229769
0.03979166667,-0.01838002354
0.0398125,-0.01855530404
0.03983333333,-0.01869285479
0.03985416667,-0.01883579046
0.039875,-0.01892602816
0.03989583333,-0.01900378987
0.03991666667,-0.019066751
0.0399375,-0.01917696558
0.03995833333,-0.01926562376
0.03997916667,-0.01939053461
0.04,-0.01948984712
0.04002083333,-0.01958510838
0.04004166667,-0.01962130517
0.0400625,-0.01972229593
0.04008333333,-0.01979203336
0.04010416667,-0.01988955028
0.040125,-0.01999693736
0.04014583333,-0.02007749304
0.04016666667,-0.02013889328
0.0401875,-0.02020543255
0.04020833333,-0.02026601695
0.04022916667,-0.0203559529
0.04025,-0.02044613846
0.04027083333,-0.02054699883
0.04029166667,-0.02062632143
0.0403125,-0.02075071447
0.04033333333,-0.02085743472
0.04035416667,-0.02099114284
0.040375,-0.02112987451
0.04039583333,-0.0212756563
0.04041666667,-0.02142667212
0.0404375,-0.02162970044
0.04045833333,-0.02182008885
0.04047916667,-0.02204160579
0.0405,-0.0222231932
0.04052083333,-0.02246080153
0.04054166667,-0.02263405174
0.0405625,-0.0227795206
0.04058333333,-0.02291575819
0.04060416667,-0.02303642035
0.040625,-0.02321196534
0.04064583333,-0.0233576335
0.04066666667,-0.02349972911
0.0406875,-0.0236732699
0.04070833333,-0.0237874873
0.04072916667,-0.02390036732
0.04075,-0.02397891879
0.04077083333,-0.02400197461
0.04079166667,-0.02403549477
0.0408125,-0.02403410524
0.04083333333,-0.02404287271
0.04085416667,-0.02403953858
0.040875,-0.02401598729
0.04089583333,-0.02393045649
0.04091666667,-0.0238172356
0.0409375,-0.02370153554
0.04095833333,-0.02360256575
0.04097916667,-0.02346113883
0.041,-0.02332734875
0.04102083333,-0.02320170589
0.04104166667,-0.02308812924
0.0410625,-0.02293322608
0.04108333333,-0.02280618623
0.04110416667,-0.02262859233
0.041125,-0.02249397337
0.04114583333,-0.02233283035
0.04116666667,-0.02220264822
0.0411875,-0.02207313105
0.04120833333,-0.02192970924
0.04122916667,-0.02178050578
0.04125,-0.02164666913
0.04127083333,-0.02152496949
0.04129166667,-0.02141900547
0.0413125,-0.02128471993
0.04133333333,-0.02118735574
0.04135416667,-0.02105667815
0.041375,-0.02096815966
0.04139583333,-0.02086562477
0.04141666667,-0.02080673538
0.0414375,-0.02068385854
0.04145833333,-0.020599626
0.04147916667,-0.02048023976
0.0415,-0.02039377764
0.04152083333,-0.02032696642
0.04154166667,-0.02031312324
0.0415625,-0.02028781176
0.04158333333,-0.020316476
0.04160416667,-0.02028288506
0.041625,-0.02031106502
0.04164583333,-0.02027818374
0.04166666667,-0.02032171749
0.0416875,-0.02034478262
0.04170833333,-0.0204563234
0.04172916667,-0.02054830641
0.04175,-0.02076650597
0.04177083333,-0.02086197026
0.04179166667,-0.02099291049
0.0418125,-0.02108929865
0.04183333333,-0.0211537946
0.04185416667,-0.02124485187
0.041875,-0.02134767547
0.04189583333,-0.02142494731
0.04191666667,-0.02158660442
0.0419375,-0.02166937664
0.04195833333,-0.02181796357
0.04197916667,-0.02190122753
0.042,-0.0219918564
0.04202083333,-0.02202474512
0.04204166667,-0.02208551206
0.0420625,-0.02212542482
0.04208333333,-0.02225014567
0.04210416667,-0.02230483666
0.042125,-0.0223788023
0.04214583333,-0.02237679437
0.04216666667,-0.02238676697
0.0421875,-0.02237648331
0.04220833333,-0.02237450704
0.04222916667,-0.02233714983
0.04225,-0.02231481671
0.04227083333,-0.02225308679
0.04229166667,-0.02223816141
0.0423125,-0.02227062359
0.04233333333,-0.02227896266
0.04235416667,-0.02236323431
0.042375,-0.02235627733
0.04239583333,-0.02240693942
0.04241666667,-0.02238865569
0.0424375,-0.02238864824
0.04245833333,-0.02242764086
0.04247916667,-0.02247943357
0.0425,-0.02250674739
0.04252083333,-0.0225502383
0.04254166667,-0.02250989154
0.0425625,-0.0225073155
0.04258333333,-0.02242591418
0.04260416667,-0.0224476438
0.042625,-0.02245393209
0.04264583333,-0.02250828966
0.04266666667,-0.02253157832
0.0426875,-0.02258238569
0.04270833333,-0.02256256342
0.04272916667,-0.02253905125
0.04275,-0.02239575796
0.04277083333,-0.02240047418
0.04279166667,-0.02231846377
0.0428125,-0.02239042893
0.04283333333,-0.02230461501
0.04285416667,-0.02232406847
0.042875,-0.02218487859
0.04289583333,-0.02217415161
0.04291666667,-0.02200865187
0.0429375,-0.02192778699
0.04295833333,-0.02185042575
0.04297916667,-0.02183271572
0.043,-0.02178768814
0.04302083333,-0.02179908566
0.04304166667,-0.02165819332
0.0430625,-0.02163157985
0.04308333333,-0.02146284841
0.04310416667,-0.02140233479
0.043125,-0.02124786004
0.04314583333,-0.02116987668
0.04316666667,-0.02099648491
0.0431875,-0.02093917504
0.04320833333,-0.02082049288
0.04322916667,-0.02074147575
0.04325,-0.02063263953
0.04327083333,-0.02054175735
0.04329166667,-0.02033282444
0.0433125,-0.02015636116
0.04333333333,-0.02000324242
0.04335416667,-0.01989177428
0.043375,-0.01971777529
0.04339583333,-0.01953138597
0.04341666667,-0.01930882037
0.0434375,-0.01911102608
0.04345833333,-0.0188284535
0.04347916667,-0.01857894659
0.0435,-0.01825992391
0.04352083333,-0.01796844788
0.04354166667,-0.0176645983
0.0435625,-0.01736283116
0.04358333333,-0.01711321995
0.04360416667,-0.01686583459
0.043625,-0.01666705124
0.04364583333,-0.0163635686
0.04366666667,-0.01617021486
0.0436875,-0.01591740735
0.04370833333,-0.01572307013
0.04372916667,-0.01554826088
0.04375,-0.01536133792
0.04377083333,-0.01515148859
0.04379166667,-0.01497028209
0.0438125,-0.01482263301
0.04383333333,-0.0147151053
0.04385416667,-0.01460758131
0.043875,-0.01453705877
0.04389583333,-0.01439060178
0.04391666667,-0.0142369559
0.0439375,-0.01409188285
0.04395833333,-0.0139079662
0.04397916667,-0.0137325637
0.044,-0.01359276567
0.04402083333,-0.01342750154
0.04404166667,-0.01331605483
0.0440625,-0.01306386478
0.04408333333,-0.01287544332
0.04410416667,-0.01254533697
0.044125,-0.01226880401
0.04414583333,-0.01187654119
0.04416666667,-0.01160899736
0.0441875,-0.01121768355
0.04420833333,-0.01090121921
0.04422916667,-0.01056352537
0.04425,-0.01028671488
0.04427083333,-0.01000593137
0.04429166667,-0.00978482794
0.0443125,-0.009513561614
0.04433333333,-0.009317602031
0.04435416667,-0.009048481472
0.044375,-0.008886943571
0.04439583333,-0.008721022867
0.04441666667,-0.008645683527
0.0444375,-0.008554648608
0.04445833333,-0.008573072031
0.04447916667,-0.008575455286
0.0445,-0.008702818304
0.04452083333,-0.00854944624
0.04454166667,-0.0086396439
0.0445625,-0.008676680736
0.04458333333,-0.008748641238
0.04460416667,-0.008876397274
0.044625,-0.008955149911
0.04464583333,-0.009001246653
0.04466666667,-0.009092720225
0.0446875,-0.009124522097
0.04470833333,-0.009166229516
0.04472916667,-0.009100315161
0.04475,-0.009107329883
0.04477083333,-0.00899136439
0.04479166667,-0.00897227414
0.0448125,-0.008839222603
0.04483333333,-0.008793613873
0.04485416667,-0.008644225076
0.044875,-0.008498835377
0.04489583333,-0.008217260242
0.04491666667,-0.008034578525
0.0449375,-0.007702952251
0.04495833333,-0.007453679573
0.04497916667,-0.007084648125
0.045,-0.006850065198
0.04502083333,-0.006456652656
0.04504166667,-0.006202398799
0.0450625,-0.005780454725
0.04508333333,-0.005471523851
0.04510416667,-0.004984186962
0.045125,-0.004604221787
0.04514583333,-0.004099868238
0.04516666667,-0.003720633686
0.0451875,-0.003220369807
0.04520833333,-0.002850419143
0.04522916667,-0.002378750127
0.04525,-0.002078758786
0.04527083333,-0.001676188083
0.04529166667,-0.001347889425
0.0453125,-0.000926867302
0.04533333333,-0.0005968625192
0.04535416667,-0.0001238922996
0.045375,0.000168898594
0.04539583333,0.0006068694056
0.04541666667,0.0009494120604
0.0454375,0.001448060386
0.04545833333,0.001884908997
0.04547916667,0.00229931809
0.0455,0.002621280262
0.04552083333,0.003115599509
0.04554166667,0.003673760453
0.0455625,0.00404388085
0.04558333333,0.004548493307
0.04560416667,0.004979758989
0.045625,0.005667703226
0.04564583333,0.006178467534
0.04566666667,0.006699306425
0.0456875,0.007172212936
0.04570833333,0.007671201136
0.04572916667,0.008116466925
0.04575,0.008583299816
0.04577083333,0.008987640031
0.04579166667,0.009474758059
0.0458125,0.009896128438
0.04583333333,0.01033803914
0.04585416667,0.010690514
0.045875,0.01107196417
0.04589583333,0.01138512231
0.04591666667,0.0117608849
0.0459375,0.01197683625
0.04595833333,0.01228118408
0.04597916667,0.01246434264
0.046,0.01275806781
0.04602083333,0.01293299533
0.04604166667,0.0131939752
0.0460625,0.01333043259
0.04608333333,0.01359917689
0.04610416667,0.01369082835
0.046125,0.01400023699
0.04614583333,0.01413023099
0.04616666667,0.01442440785
0.0461875,0.01449438091
0.04620833333,0.01471288502
0.04622916667,0.0147198746
0.04625,0.01492676325
0.04627083333,0.01497376617
0.04629166667,0.01520035416
0.0463125,0.01523308177
0.04633333333,0.01549212448
0.04635416667,0.01551971771
0.046375,0.01568524539
0.04639583333,0.01572257094
0.04641666667,0.01595266163
0.0464375,0.01592665352
0.04645833333,0.01614720747
0.04647916667,0.01612964645
0.0465,0.01637655683
0.04652083333,0.01650755852
0.04654166667,0.01660626568
0.0465625,0.01667240635
0.04658333333,0.01678784192
0.04660416667,0.01697937213
0.046625,0.01735647395
0.04664583333,0.01741616428
0.04666666667,0.01766560227
0.0466875,0.017629195
0.04670833333,0.01766608842
0.04672916667,0.01774377376
0.04675,0.01778239384
0.04677083333,0.017828729
0.04679166667,0.01797355339
0.0468125,0.01797314361
0.04683333333,0.01808596216
0.04685416667,0.01804112643
0.046875,0.0180171337
0.04689583333,0.01789443009
0.04691666667,0.0178577248
0.0469375,0.01777766272
0.04695833333,0.01776401699
0.04697916667,0.01769148931
0.047,0.01770388335
0.04702083333,0.01772702485
0.04704166667,0.01771965437
0.0470625,0.01769043133
0.04708333333,0.01764158532
0.04710416667,0.01764385775
0.047125,0.01764696091
0.04714583333,0.01765875332
0.04716666667,0.01768251322
0.0471875,0.01775307581
0.04720833333,0.01777658239
0.04722916667,0.01786117814
0.04725,0.0179012455
0.04727083333,0.01800193079
0.04729166667,0.0180864539
0.0473125,0.01826064289
0.04733333333,0.01826659404
0.04735416667,0.01842321828
0.047375,0.0185952764
0.04739583333,0.01888031326
0.04741666667,0.01917367429
0.0474375,0.01962714829
0.04745833333,0.01996765658
0.04747916667,0.02058288269
0.0475,0.02100181021
0.04752083333,0.02163129672
0.04754166667,0.02209565789
0.0475625,0.02282705158
0.04758333333,0.02333747223
0.04760416667,0.02409103513
0.047625,0.0245888643
0.04764583333,0.02544789761
0.04766666667,0.02603786625
0.0476875,0.02681560069
0.04770833333,0.02746674977
0.04772916667,0.02822100744
0.04775,0.02883704752
0.04777083333,0.02954118326
0.04779166667,0.03013737313
0.0478125,0.0308096651
0.04783333333,0.03147218376
0.04785416667,0.03220076114
0.047875,0.03275644034
0.04789583333,0.03343214467
0.04791666667,0.03399914503
0.0479375,0.03464563563
0.04795833333,0.03520489484
0.04797916667,0.03585935384
0.048,0.03639537469
0.04802083333,0.03693612665
0.04804166667,0.03740695119
0.0480625,0.03805842623
0.04808333333,0.03861575946
0.04810416667,0.03920274228
0.048125,0.0397195518
0.04814583333,0.0402187705
0.04816666667,0.04064974189
0.0481875,0.04115878791
0.04820833333,0.04157567397
0.04822916667,0.0419966951
0.04825,0.04230848327
0.04827083333,0.04264090583
0.04829166667,0.04285729676
0.0483125,0.04311724752
0.04833333333,0.04325699061
0.04835416667,0.0434778817
0.048375,0.04356848449
0.04839583333,0.0436640121
0.04841666667,0.04362900928
0.0484375,0.04365839809
0.04845833333,0.04359696805
0.04847916667,0.04354650527
0.0485,0.04338882864
0.04852083333,0.04322206602
0.04854166667,0.04296581075
0.0485625,0.04281007871
0.04858333333,0.04248608649
0.04860416667,0.04233457893
0.048625,0.04208171368
0.04864583333,0.04187937081
0.04866666667,0.04165223986
0.0486875,0.04136944562
0.04870833333,0.04109571874
0.04872916667,0.04086599126
0.04875,0.04054950178
0.04877083333,0.0403339304
0.04879166667,0.04006548971
0.0488125,0.03987979144
0.04883333333,0.03969706222
0.04885416667,0.03949010745
0.048875,0.03932305425
0.04889583333,0.03915733099
0.04891666667,0.03899841756
0.0489375,0.03885110095
0.04895833333,0.03871640563
0.04897916667,0.03858289123
0.049,0.03850930557
0.04902083333,0.03842506185
0.04904166667,0.038425982
0.0490625,0.03843714669
0.04908333333,0.03845949844
0.04910416667,0.03847399354
0.049125,0.03851216659
0.04914583333,0.03857358173
0.04916666667,0.03869732469
0.0491875,0.03869956732
0.04920833333,0.03876373172
0.04922916667,0.03875630721
0.04925,0.0387926735
0.04927083333,0.03887433559
0.04929166667,0.03899779916
0.0493125,0.03904530033
0.04933333333,0.03925282508
0.04935416667,0.03938635811
0.049375,0.03964404389
0.04939583333,0.03988169134
0.04941666667,0.04008239508
0.0494375,0.04026029259
0.04945833333,0.04042806104
0.04947916667,0.04059105366
0.0495,0.04087089002
0.04952083333,0.04112845659
0.04954166667,0.04153254628
0.0495625,0.04179765284
0.04958333333,0.04211927578
0.04960416667,0.04241597652
0.049625,0.04275930673
0.04964583333,0.04295616597
0.04966666667,0.04326403886
0.0496875,0.04345215857
0.04970833333,0.04383281618
0.04972916667,0.04404608905
0.04975,0.04438901693
0.04977083333,0.04460347444
0.04979166667,0.04489139467
0.0498125,0.0450835228
0.04983333333,0.04518938437
0.04985416667,0.04523906112
0.049875,0.04531173781
0.04989583333,0.0452805832
0.04991666667,0.04540196806
0.0499375,0.04531854019
0.04995833333,0.04532627016
0.04997916667,0.04520448297
0.05,0.0451265797
0.05002083333,0.04495241493
0.05004166667,0.04493420571
0.0500625,0.04485660791
0.05008333333,0.04480070248
0.05010416667,0.04469610751
0.050125,0.04467093945
0.05014583333,0.04458081722
0.05016666667,0.04453393072
0.0501875,0.04445402324
0.05020833333,0.04445966706
0.05022916667,0.044427488
0.05025,0.04451584443
0.05027083333,0.04455828294
0.05029166667,0.04475408792
0.0503125,0.04494506866
0.05033333333,0.04515957832
0.05035416667,0.0454094708
0.050375,0.04567500204
0.05039583333,0.0459726043
0.05041666667,0.0463412255
0.0504375,0.04672695324
0.05045833333,0.04724617302
0.05047916667,0.04777652025
0.0505,0.04836604744
0.05052083333,0.04896662012
0.05054166667,0.04950696602
0.0505625,0.04996002838
0.05058333333,0.05055651441
0.05060416667,0.05094024166
0.050625,0.05146403983
0.05064583333,0.05201603845
0.05066666667,0.05252552405
0.0506875,0.05295140296
0.05070833333,0.05333739892
0.05072916667,0.05365568027
0.05075,0.05379772559
0.05077083333,0.0538527593
0.05079166667,0.05387385935
0.0508125,0.05386946723
0.05083333333,0.05383140594
0.05085416667,0.05372491479
0.050875,0.05349222571
0.05089583333,0.05334041268
0.05091666667,0.05308846757
0.0509375,0.0527219139
0.05095833333,0.05228225887
0.05097916667,0.05181160942
0.051,0.05134452134
0.05102083333,0.05095263571
0.05104166667,0.05048005655
0.0510625,0.05015347153
0.05108333333,0.049751129
0.05110416667,0.04939559847
0.051125,0.04893625155
0.05114583333,0.0485824123
0.05116666667,0.04809282348
0.0511875,0.04770011082
0.05120833333,0.0471663624
0.05122916667,0.04673067853
0.05125,0.04630987719
0.05127083333,0.04596585035
0.05129166667,0.04557228461
0.0513125,0.04526812956
0.05133333333,0.04488361999
0.05135416667,0.04458193481
0.051375,0.04417775944
0.05139583333,0.04387710243
0.05141666667,0.04358005151
0.0514375,0.04344156012
0.05145833333,0.04321406037
0.05147916667,0.04310798645
0.0515,0.04296394438
0.05152083333,0.04297438264
0.05154166667,0.04296407104
0.0515625,0.04302700981
0.05158333333,0.04295559973
0.05160416667,0.043168623
0.051625,0.04319612309
0.05164583333,0.04348153621
0.05166666667,0.04351284355
0.0516875,0.04370101914
0.05170833333,0.0439129658
0.05172916667,0.04415796697
0.05175,0.04441023618
0.05177083333,0.0446744673
0.05179166667,0.04492972791
0.0518125,0.04526722804
0.05183333333,0.04534254968
0.05185416667,0.04563968256
0.051875,0.04575093836
0.05189583333,0.04605504498
0.05191666667,0.0460677743
0.0519375,0.04621381685
0.05195833333,0.04633722082
0.05197916667,0.04657389224
0.052,0.04665481299
0.05202083333,0.04675883427
0.05204166667,0.04672690853
0.0520625,0.04678304493
0.05208333333,0.04668282345
0.05210416667,0.04669554159
0.052125,0.04654506594
0.05214583333,0.0464906767
0.05216666667,0.04634818807
0.0521875,0.04631688073
0.05220833333,0.04608378559
0.05222916667,0.04601446539
0.05225,0.04577400535
0.05227083333,0.04566078633
0.05229166667,0.04550893232
0.0523125,0.0453850776
0.05233333333,0.04534918442
0.05235416667,0.04528059065
0.052375,0.04518623278
0.05239583333,0.04509971663
0.05241666667,0.04503517598
0.0524375,0.04492297024
0.05245833333,0.04483060539
0.05247916667,0.04480163381
0.0525,0.04484927654
0.05252083333,0.04486098513
0.05254166667,0.04496217519
0.0525625,0.04494586959
0.05258333333,0.04505444318
0.05260416667,0.04501824081
0.052625,0.04505960643
0.05264583333,0.04498593509
0.05266666667,0.04496389255
0.0526875,0.04487650469
0.05270833333,0.0448570475
0.05272916667,0.04480938613
0.05275,0.04484755173
0.05277083333,0.04474157095
0.05279166667,0.04474229738
0.0528125,0.04461564124
0.05283333333,0.04461739212
0.05285416667,0.04436005652
0.052875,0.04429196939
0.05289583333,0.04403925687
0.05291666667,0.04385751486
0.0529375,0.04364354536
0.05295833333,0.04359222203
0.05297916667,0.04331922904
0.053,0.04332698882
0.05302083333,0.04309704155
0.05304166667,0.04302661866
0.0530625,0.0428715609
0.05308333333,0.0426623486
0.05310416667,0.04241365194
0.053125,0.04232086986
0.05314583333,0.04204058647
0.05316666667,0.04199851304
0.0531875,0.04176095873
0.05320833333,0.04167642072
0.05322916667,0.04147365689
0.05325,0.04132830352
0.05327083333,0.04101703316
0.05329166667,0.04093205556
0.0533125,0.04054256901
0.05333333333,0.04037095979
0.05335416667,0.03995561972
0.053375,0.03975575045
0.05339583333,0.03928754851
0.05341666667,0.03892945498
0.0534375,0.03839038312
0.05345833333,0.03801542521
0.05347916667,0.0374519974
0.0535,0.03701710328
0.05352083333,0.03634562343
0.05354166667,0.03583811224
0.0535625,0.03523822501
0.05358333333,0.03471556678
0.05360416667,0.03408667073
0.053625,0.03360403329
0.05364583333,0.03308894485
0.05366666667,0.03268728033
0.0536875,0.03216196224
0.05370833333,0.03184703737
0.05372916667,0.03128415719
0.05375,0.03102555312
0.05377083333,0.03070818447
0.05379166667,0.03049847297
0.0538125,0.03015878424
0.05383333333,0.03010194749
0.05385416667,0.02990276739
0.053875,0.0297800675
0.05389583333,0.02967336774
0.05391666667,0.02950293571
0.0539375,0.02936907485
0.05395833333,0.02919701673
0.05397916667,0.02878983691
0.054,0.02862090431
0.05402083333,0.02812121063
0.05404166667,0.02792965807
0.0540625,0.02734888718
0.05408333333,0.026971763
0.05410416667,0.02647913434
0.054125,0.0260297507
0.05414583333,0.02540771104
0.05416666667,0.02492009662
0.0541875,0.02425721101
0.05420833333,0.02377592959
0.05422916667,0.0232057292
0.05425,0.02278129384
0.05427083333,0.02226772532
0.05429166667,0.02186906338
0.0543125,0.02133448236
0.05433333333,0.02097639069
0.05435416667,0.02064989135
0.054375,0.02044628933
0.05439583333,0.02012685686
0.05441666667,0.02006555162
0.0544375,0.01979463361
0.05445833333,0.01974745467
0.05447916667,0.01958463714
0.0545,0.0195782017
0.05452083333,0.01963306591
0.05454166667,0.01976405643
0.0545625,0.01991262287
0.05458333333,0.02003379539
0.05460416667,0.02004584484
0.054625,0.02017641254
0.05464583333,0.0202461686
0.05466666667,0.02019228786
0.0546875,0.02026149817
0.05470833333,0.02034922317
0.05472916667,0.02043375
0.05475,0.02046156116
0.05477083333,0.02041434869
0.05479166667,0.02042654343
0.0548125,0.0203341525
0.05483333333,0.02023972012
0.05485416667,0.02006113529
0.054875,0.0197941605
0.05489583333,0.01954628155
0.05491666667,0.01914559491
0.0549375,0.01874300838
0.05495833333,0.01834180765
0.05497916667,0.01795855537
0.055,0.017495526
0.05502083333,0.01689555123
0.05504166667,0.01643172838
0.0550625,0.01579703763
0.05508333333,0.01529992744
0.05510416667,0.01472306717
0.055125,0.01412604749
0.05514583333,0.0135247549
0.05516666667,0.01286973059
0.0551875,0.01226637885
0.05520833333,0.01165720541
0.05522916667,0.01096634753
0.05525,0.01037628856
0.05527083333,0.009662396275
0.05529166667,0.009041257203
0.0553125,0.008468424901
0.05533333333,0.007892231457
0.05535416667,0.00743681239
0.055375,0.006840785034
0.05539583333,0.006375041325
0.05541666667,0.005834914744
0.0554375,0.005389178172
0.05545833333,0.004728109576
0.05547916667,0.004456978291
0.0555,0.003881029785
0.05552083333,0.003450726392
0.05554166667,0.002819987945
0.0555625,0.002451963723
0.05558333333,0.002088089939
0.05560416667,0.001670624944
0.055625,0.001095292158
0.05564583333,0.0007123765536
0.05566666667,0.0002370293951
0.0556875,-0.000176378031
0.05570833333,-0.0005654089618
0.05572916667,-0.0009852894582
0.05575,-0.001565170242
0.05577083333,-0.001842214027
0.05579166667,-0.00242147292
0.0558125,-0.002715890529
0.05583333333,-0.003249862464
0.05585416667,-0.003504825756
0.055875,-0.003991529811
0.05589583333,-0.004266686272
0.05591666667,-0.004719507881
0.0559375,-0.004986516666
0.05595833333,-0.005549336318
0.05597916667,-0.005793588702
0.056,-0.006347711198
0.05602083333,-0.006659419741
0.05604166667,-0.007212654687
0.0560625,-0.007481388748
0.05608333333,-0.007961750031
0.05610416667,-0.008202357218
0.056125,-0.008632760495
0.05614583333,-0.008935869671
0.05616666667,-0.009409391321
0.0561875,-0.009673588909
0.05620833333,-0.01006770786
0.05622916667,-0.01025298424
0.05625,-0.0107245855
0.05627083333,-0.0109437881
0.05629166667,-0.01130072493
0.0563125,-0.01141752675
0.05633333333,-0.01171079371
0.05635416667,-0.01187368762
0.056375,-0.01218200382
0.05639583333,-0.01224415004
0.05641666667,-0.01256484166
0.0564375,-0.01271107327
0.05645833333,-0.01289560553
0.05647916667,-0.0129679041
0.0565,-0.01326129492
0.05652083333,-0.01315611415
0.05654166667,-0.01333682146
0.0565625,-0.0129624363
0.05658333333,-0.01317190845
0.05660416667,-0.01270932052
0.056625,-0.01291250996
0.05664583333,-0.01262522861
0.05666666667,-0.01244225353
0.0566875,-0.01202893909
0.05670833333,-0.01179651637
0.05672916667,-0.01176004112
0.05675,-0.01157447882
0.05677083333,-0.01135197375
0.05679166667,-0.01139853895
0.0568125,-0.01129095908
0.05683333333,-0.01150290575
0.05685416667,-0.01136446558
0.056875,-0.01154715475
0.05689583333,-0.01149088982
0.05691666667,-0.01177519467
0.0569375,-0.01174474228
0.05695833333,-0.01205425896
0.05697916667,-0.01204481907
0.057,-0.01245130133
0.05702083333,-0.01249699015
0.05704166667,-0.01275658235
0.0570625,-0.01270545553
0.05708333333,-0.01290949248
0.05710416667,-0.01291778497
0.057125,-0.01310465764
0.05714583333,-0.01309476141
0.05716666667,-0.01326612197
0.0571875,-0.01315377373
0.05720833333,-0.01324876305
0.05722916667,-0.01305571571
0.05725,-0.01303844247
0.05727083333,-0.01289694197
0.05729166667,-0.0129388012
0.0573125,-0.01290441677
0.05733333333,-0.01314204279
0.05735416667,-0.0129711004
0.057375,-0.01331211999
0.05739583333,-0.01352621242
0.05741666667,-0.0136553403
0.0574375,-0.01408067066
0.05745833333,-0.01414309815
0.05747916667,-0.01453300565
0.0575,-0.01516487822
0.05752083333,-0.01576204039
0.05754166667,-0.01637782156
0.0575625,-0.01706168801
0.05758333333,-0.01807091013
0.05760416667,-0.01874133758
0.057625,-0.01973034441
0.05764583333,-0.02052710205
0.05766666667,-0.02155262604
0.0576875,-0.02234017476
0.05770833333,-0.02322268486
0.05772916667,-0.02420855686
0.05775,-0.02524650656
0.05777083333,-0.02627488784
0.05779166667,-0.02733982727
0.0578125,-0.02825772017
0.05783333333,-0.02925536036
0.05785416667,-0.03004557639
0.057875,-0.03095924854
0.05789583333,-0.03171102703
0.05791666667,-0.03257295862
0.0579375,-0.03336509317
0.05795833333,-0.03411038965
0.05797916667,-0.03490281478
0.058,-0.03564968705
0.05802083333,-0.03642559052
0.05804166667,-0.03705047816
0.0580625,-0.03773907945
0.05808333333,-0.03849308193
0.05810416667,-0.03917523846
0.058125,-0.0398825109
0.05814583333,-0.04056674987
0.05816666667,-0.04124865308
0.0581875,-0.04188976064
0.05820833333,-0.04251883179
0.05822916667,-0.04301565513
0.05825,-0.04349647462
0.05827083333,-0.0438711755
0.05829166667,-0.04423733801
0.0583125,-0.0444865562
0.05833333333,-0.04463327304
0.05835416667,-0.0448330678
0.058375,-0.04492525011
0.05839583333,-0.04497633129
0.05841666667,-0.04497380555
0.0584375,-0.04483550414
0.05845833333,-0.04478083178
0.05847916667,-0.0445696339
0.0585,-0.04437963292
0.05852083333,-0.04411862418
0.05854166667,-0.0438297987
0.0585625,-0.04354858398
0.05858333333,-0.04323346913
0.05860416667,-0.04288492352
0.058625,-0.04248160496
0.05864583333,-0.04201449454
0.05866666667,-0.04164059088
0.0586875,-0.04120882973
0.05870833333,-0.0409141928
0.05872916667,-0.04055527598
0.05875,-0.04024968296
0.05877083333,-0.03989181668
0.05879166667,-0.03962165117
0.0588125,-0.03918973356
0.05883333333,-0.03886297345
0.05885416667,-0.03861078992
0.058875,-0.03823728114
0.05889583333,-0.0379181318
0.05891666667,-0.03757303208
0.0589375,-0.03722566366
0.05895833333,-0.0370021835
0.05897916667,-0.03678457439
0.059,-0.03655204922
0.05902083333,-0.03654912114
0.05904166667,-0.03648528457
0.0590625,-0.0364892222
0.05908333333,-0.03650677577
0.05910416667,-0.03656642511
0.059125,-0.03661859408
0.05914583333,-0.03679423034
0.05916666667,-0.03687869012
0.0591875,-0.03710671142
0.05920833333,-0.03719286248
0.05922916667,-0.0375232026
0.05925,-0.03770348802
0.05927083333,-0.03801564127
0.05929166667,-0.03829219192
0.0593125,-0.0386088118
0.05933333333,-0.03888656572
0.05935416667,-0.03923320398
0.059375,-0.03940107673
0.05939583333,-0.03977954015
0.05941666667,-0.04001243412
0.0594375,-0.04040567204
0.05945833333,-0.04078891128
0.05947916667,-0.04129618034
0.0595,-0.0416200459
0.05952083333,-0.04207272828
0.05954166667,-0.04250046611
0.0595625,-0.04301930591
0.05958333333,-0.04333759844
0.05960416667,-0.04380713776
0.059625,-0.0441384837
0.05964583333,-0.04463175684
0.05966666667,-0.04499503598
0.0596875,-0.04544029012
0.05970833333,-0.04580298066
0.05972916667,-0.046084553
0.05975,-0.04638742656
0.05977083333,-0.04672508687
0.05979166667,-0.04696806893
0.0598125,-0.04733645171
0.05983333333,-0.04741791636
0.05985416667,-0.04767474905
0.059875,-0.04778977111
0.05989583333,-0.0479122065
0.05991666667,-0.04787617922
0.0599375,-0.04795328528
0.05995833333,-0.04785172641
0.05997916667,-0.04780175164
0.06,-0.04741907492
0.06002083333,-0.04718955979
0.06004166667,-0.04694304988
0.0600625,-0.04675985128
0.06008333333,-0.04657570645
0.06010416667,-0.04633845389
0.060125,-0.04602508247
0.06014583333,-0.04586076364
0.06016666667,-0.04558478668
0.0601875,-0.04548134655
0.06020833333,-0.0452587679
0.06022916667,-0.04529483989
0.06025,-0.04513387382
0.06027083333,-0.04514026642
0.06029166667,-0.04513168707
0.0603125,-0.04527578503
0.06033333333,-0.04551782459
0.06035416667,-0.04580304399
0.060375,-0.04621670395
0.06039583333,-0.04677946121
0.06041666667,-0.04722616449
0.0604375,-0.04789238796
0.06045833333,-0.04857003689
0.06047916667,-0.04929177463
0.0605,-0.04998270795
0.06052083333,-0.05076572299
0.06054166667,-0.05152222514
0.0605625,-0.05227412283
0.06058333333,-0.05299251527
0.06060416667,-0.05381428823
0.060625,-0.05456048995
0.06064583333,-0.05534533784
0.06066666667,-0.05605197698
0.0606875,-0.05674367771
0.06070833333,-0.05733121932
0.06072916667,-0.05782877654
0.06075,-0.05825128779
0.06077083333,-0.05854779109
0.06079166667,-0.05861914158
0.0608125,-0.0587499328
0.06083333333,-0.05859803781
0.06085416667,-0.0585080944
0.060875,-0.05809001625
0.06089583333,-0.05776306987
0.06091666667,-0.05741257966
0.0609375,-0.05698421597
0.06095833333,-0.05659508705
0.06097916667,-0.05603802204
0.061,-0.05555805191
0.06102083333,-0.05492872745
0.06104166667,-0.05428863317
0.0610625,-0.05373550579
0.06108333333,-0.05310622975
0.06110416667,-0.05244734138
0.061125,-0.05183077604
0.06114583333,-0.05113915727
0.06116666667,-0.05053707957
0.0611875,-0.04990955442
0.06120833333,-0.04934103042
0.06122916667,-0.04877794161
0.06125,-0.04832891002
0.06127083333,-0.0477675721
0.06129166667,-0.04729590565
0.0613125,-0.04678142443
0.06133333333,-0.04640914127
0.06135416667,-0.04579946026
0.061375,-0.04543942213
0.06139583333,-0.04501983151
0.06141666667,-0.04463449866
0.0614375,-0.0442705676
0.06145833333,-0.0438734889
0.06147916667,-0.04353698716
0.0615,-0.04339007288
0.06152083333,-0.04316433519
0.06154166667,-0.04322611168
0.0615625,-0.04315885529
0.06158333333,-0.04327361658
0.06160416667,-0.04325192422
0.061625,-0.0433267802
0.06164583333,-0.04347081482
0.06166666667,-0.0436790064
0.0616875,-0.04388638586
0.06170833333,-0.04413542897
0.06172916667,-0.0443604514
0.06175,-0.04480669647
0.06177083333,-0.045132
0.06179166667,-0.04567503557
0.0618125,-0.0457870774
0.06183333333,-0.04635756835
0.06185416667,-0.04647251219
0.061875,-0.04688345641
0.06189583333,-0.04707350582
0.06191666667,-0.04738204554
0.0619375,-0.04758541286
0.06195833333,-0.04771677032
0.06197916667,-0.04794253781
0.062,-0.0480433777
0.06202083333,-0.04803674668
0.06204166667,-0.04821774736
0.0620625,-0.04819540679
0.06208333333,-0.04815145582
0.06210416667,-0.04808093235
0.062125,-0.04797388986
0.06214583333,-0.04775920883
0.06216666667,-0.04756656662
0.0621875,-0.04729197919
0.06220833333,-0.04714111984
0.06222916667,-0.04680880532
0.06225,-0.04685281217
0.06227083333,-0.04651300609
0.06229166667,-0.04649059847
0.0623125,-0.04621339962
0.06233333333,-0.04610241205
0.06235416667,-0.04585916921
0.062375,-0.0457919836
0.06239583333,-0.04553849995
0.06241666667,-0.04550255463
0.0624375,-0.04525136203
0.06245833333,-0.04533481225
0.06247916667,-0.04519607499
0.0625,-0.04510070384
0.06252083333,-0.04506228119
0.06254166667,-0.04499116912
0.0625625,-0.04503220692
0.06258333333,-0.04519831389
0.06260416667,-0.0450547561
0.062625,-0.04518385977
0.06264583333,-0.04503478482
0.06266666667,-0.04504239187
0.0626875,-0.04500869289
0.06270833333,-0.04507058486
0.06272916667,-0.04510247707
0.06275,-0.04517892376
0.06277083333,-0.04513855651
0.06279166667,-0.04520623386
0.0628125,-0.04517371207
0.06283333333,-0.04521521181
0.06285416667,-0.0451977551
0.062875,-0.04530079663
0.06289583333,-0.04514986277
0.06291666667,-0.04503820464
0.0629375,-0.04494816065
0.06295833333,-0.04479511827
0.06297916667,-0.04463776946
0.063,-0.04447872192
0.06302083333,-0.04439802468
0.06304166667,-0.04428808391
0.0630625,-0.04417468235
0.06308333333,-0.04414513707
0.06310416667,-0.04396893457
0.063125,-0.04401254654
0.06314583333,-0.04388640821
0.06316666667,-0.04375885427
0.0631875,-0.04362784699
0.06320833333,-0.04350813106
0.06322916667,-0.04330294579
0.06325,-0.04318635166
0.06327083333,-0.04300833866
0.06329166667,-0.04282202199
0.0633125,-0.04242414236
0.06333333333,-0.04212073237
0.06335416667,-0.04174901173
0.063375,-0.04133518785
0.06339583333,-0.04082150012
0.06341666667,-0.04033844545
0.0634375,-0.03989859298
0.06345833333,-0.03941380233
0.06347916667,-0.03890785202
0.0635,-0.03832415491
0.06352083333,-0.03775982931
0.06354166667,-0.0370676443
0.0635625,-0.03654399142
0.06358333333,-0.03576727957
0.06360416667,-0.03521672264
0.063625,-0.03444429114
0.06364583333,-0.03378748521
0.06366666667,-0.0331630297
0.0636875,-0.03258734569
0.06370833333,-0.03199705854
0.06372916667,-0.03147164732
0.06375,-0.03077324107
0.06377083333,-0.03034723178
0.06379166667,-0.02980406582
0.0638125,-0.02951825038
0.06383333333,-0.02893090993
0.06385416667,-0.02865234017
0.063875,-0.02826807275
0.06389583333,-0.02813356929
0.06391666667,-0.02791852131
0.0639375,-0.02773187496
0.06395833333,-0.02744247951
0.06397916667,-0.02721184678
0.064,-0.0268549528
0.06402083333,-0.02648789994
0.06404166667,-0.02601194009
0.0640625,-0.02565472014
0.06408333333,-0.02509596571
0.06410416667,-0.02461501025
0.064125,-0.02394549549
0.06414583333,-0.02339535393
0.06416666667,-0.02273959666
0.0641875,-0.02218675427
0.06420833333,-0.02150220796
0.06422916667,-0.02103915066
0.06425,-0.02044350095
0.06427083333,-0.01993487217
0.06429166667,-0.01933850162
0.0643125,-0.01887774095
0.06433333333,-0.01827276312
0.06435416667,-0.01779586636
0.064375,-0.0172749348
0.06439583333,-0.01713548787
0.06441666667,-0.01675404049
0.0644375,-0.01672615856
0.06445833333,-0.01645670831
0.06447916667,-0.01647765934
0.0645,-0.01631769538
0.06452083333,-0.0163048543
0.06454166667,-0.01611708105
0.0645625,-0.01622566022
0.06458333333,-0.0161933694
0.06460416667,-0.01640378311
0.064625,-0.01630838215
0.06464583333,-0.01644596271
0.06466666667,-0.01630178094
0.0646875,-0.01633964479
0.06470833333,-0.01626142114
0.06472916667,-0.01639437675
0.06475,-0.0164960511
0.06477083333,-0.0165580716
0.06479166667,-0.01652322523
0.0648125,-0.01638408564
0.06483333333,-0.0160459429
0.06485416667,-0.01581096463
0.064875,-0.0154664414
0.06489583333,-0.01546378061
0.06491666667,-0.01492770575
0.0649375,-0.01484825183
0.06495833333,-0.01403785404
0.06497916667,-0.01356103458
0.065,-0.01297233161
0.06502083333,-0.01233202312
0.06504166667,-0.0115785161
0.0650625,-0.01090694778
0.06508333333,-0.01011872385
0.06510416667,-0.009453703649
0.065125,-0.008693411946
0.06514583333,-0.00799631048
0.06516666667,-0.007074693218
0.0651875,-0.006307348609
0.06520833333,-0.005355689675
0.06522916667,-0.004609996919
0.06525,-0.003635730594
0.06527083333,-0.002872364363
0.06529166667,-0.001839197357
0.0653125,-0.0009706997662
0.06533333333,1.798552694e-05
0.06535416667,0.0007734385435
0.065375,0.001647255616
0.06539583333,0.002422773512
0.06541666667,0.003264372703
0.0654375,0.004008605145
0.06545833333,0.004849775694
0.06547916667,0.005482009146
0.0655,0.006322572473
0.06552083333,0.007139727939
0.06554166667,0.007890744135
0.0655625,0.008887641132
0.06558333333,0.009610312991
0.06560416667,0.01059022266
0.065625,0.01117620617
0.06564583333,0.01216752268
0.06566666667,0.01300682127
0.0656875,0.01366342604
0.06570833333,0.01479355432
0.06572916667,0.01553776581
0.06575,0.01639371552
0.06577083333,0.0174562186
0.06579166667,0.01812842675
0.0658125,0.01913895831
0.06583333333,0.01988154277
0.06585416667,0.0206795577
0.065875,0.02122047544
0.06589583333,0.02192461304
0.06591666667,0.02244902588
0.0659375,0.02314427122
0.06595833333,0.02355141379
0.06597916667,0.02423320897
0.066,0.02464174666
0.06602083333,0.0251554139
0.06604166667,0.02560928464
0.0660625,0.02610730939
0.06608333333,0.02646359801
0.06610416667,0.02696990035
0.066125,0.02736086398
0.06614583333,0.0277969595
0.06616666667,0.02823975123
0.0661875,0.02863087505
0.06620833333,0.02895929851
0.06622916667,0.02938461117
0.06625,0.02963574044
0.06627083333,0.03001523204
0.06629166667,0.03018477187
0.0663125,0.03059763275
0.06633333333,0.0307199154
0.06635416667,0.03099565208
0.066375,0.03107047267
0.06639583333,0.03128432482
0.06641666667,0.0312209297
0.0664375,0.03143524006
0.06645833333,0.03149569407
0.06647916667,0.03174712881
0.0665,0.03185975924
0.06652083333,0.03204145655
0.06654166667,0.03212982044
0.0665625,0.03239866346
0.06658333333,0.03234801441
0.06660416667,0.03290505335
0.066625,0.03293898702
0.06664583333,0.0335165523
0.06666666667,0.0340012908
0.0666875,0.03414700925
0.06670833333,0.03430702165
0.06672916667,0.03452772647
0.06675,0.03454537317
0.06677083333,0.03497997299
0.06679166667,0.03487857431
0.0668125,0.03521566093
0.06683333333,0.03528386727
0.06685416667,0.03554042056
0.066875,0.03557343408
0.06689583333,0.03577661142
0.06691666667,0.03576430306
0.0669375,0.03603576124
0.06695833333,0.03598535806
0.06697916667,0.03626171872
0.067,0.03626674041
0.06702083333,0.03648683429
0.06704166667,0.03642296419
0.0670625,0.03668649122
0.06708333333,0.0366721116
0.06710416667,0.03684702888
0.067125,0.03683774173
0.06714583333,0.0370263122
0.06716666667,0.03699180856
0.0671875,0.03721921146
0.06720833333,0.03718588501
0.06722916667,0.03726661205
0.06725,0.0372239463
0.06727083333,0.03731233254
0.06729166667,0.03719634935
0.0673125,0.03738439456
0.06733333333,0.03729050979
0.06735416667,0.03750227019
0.067375,0.03742742538
0.06739583333,0.03774427995
0.06741666667,0.03774658963
0.0674375,0.03820439801
0.06745833333,0.03835694864
0.06747916667,0.03913174197
0.0675,0.03985739499
0.06752083333,0.04036120325
0.06754166667,0.04113224894
0.0675625,0.04184382036
0.06758333333,0.04272061214
0.06760416667,0.04369146749
0.067625,0.04443679005
0.06764583333,0.04540036991
0.06766666667,0.04638873786
0.0676875,0.04748488963
0.06770833333,0.0484803766
0.06772916667,0.04949842021
0.06775,0.05031577498
0.06777083333,0.05143105984
0.06779166667,0.05229796097
0.0678125,0.05331896245
0.06783333333,0.05425312743
0.06785416667,0.05529360846
0.067875,0.05610613152
0.06789583333,0.05700330064
0.06791666667,0.05777027458
0.0679375,0.05866706371
0.06795833333,0.05946342647
0.06797916667,0.06034755707
0.068,0.06109819561
0.06802083333,0.06198267266
0.06804166667,0.06272622943
0.0680625,0.0635702312
0.06808333333,0.06429956853
0.06810416667,0.06512150168
0.068125,0.06584709883
0.06814583333,0.06651136279
0.06816666667,0.06710702181
0.0681875,0.06774052978
0.06820833333,0.06833118945
0.06822916667,0.06884694099
0.06825,0.06930983812
0.06827083333,0.06976394355
0.06829166667,0.07000958174
0.0683125,0.0702348426
0.06833333333,0.07024587691
0.06835416667,0.07036720961
0.068375,0.07032479346
0.06839583333,0.07030753791
0.06841666667,0.0702431947
0.0684375,0.07014355063
0.06845833333,0.06988426298
0.06847916667,0.06960847974
0.0685,0.06930921972
0.06852083333,0.06901369989
0.06854166667,0.06862721592
0.0685625,0.06834166497
0.06858333333,0.06800659746
0.06860416667,0.06761817634
0.068625,0.06704997271
0.06864583333,0.0665217787
0.06866666667,0.06598251313
0.0686875,0.06557899714
0.06870833333,0.06510609388
0.06872916667,0.06468857825
0.06875,0.06431310624
0.06877083333,0.06393393874
0.06879166667,0.06352228671
0.0688125,0.06313593686
0.06883333333,0.06282091141
0.06885416667,0.06250697374
0.068875,0.06227643043
0.06889583333,0.06198547781
0.06891666667,0.06176127121
0.0689375,0.06146965921
0.06895833333,0.06113349646
0.06897916667,0.06089356914
0.069,0.06061100215
0.06902083333,0.06042427197
0.06904166667,0.06024394184
0.0690625,0.06014131382
0.06908333333,0.06004118919
0.06910416667,0.05990260467
0.069125,0.05981941894
0.06914583333,0.05975550786
0.06916666667,0.05981656909
0.0691875,0.05981915817
0.06920833333,0.05996194854
0.06922916667,0.06002295762
0.06925,0.06008361652
0.06927083333,0.06014523655
0.06929166667,0.06026241556
0.0693125,0.06039174274
0.06933333333,0.06062441319
0.06935416667,0.0607836768
0.069375,0.06107173488
0.06939583333,0.06131476164
0.06941666667,0.0616319105
0.0694375,0.06183485687
0.06945833333,0.0622058548
0.06947916667,0.06242268905
0.0695,0.06277554482
0.06952083333,0.06302538514
0.06954166667,0.06338998675
0.0695625,0.06368442625
0.06958333333,0.06411927938
0.06960416667,0.06440375
0.069625,0.06480148435
0.06964583333,0.06519973278
0.06966666667,0.06560301781
0.0696875,0.06591618061
0.06970833333,0.06638962775
0.06972916667,0.066598773
0.06975,0.06697203219
0.06977083333,0.06713977456
0.06979166667,0.06734804809
0.0698125,0.06742480397
0.06983333333,0.06758960336
0.06985416667,0.06759847701
0.069875,0.06772831827
0.06989583333,0.06766709685
0.06991666667,0.06775311381
0.0699375,0.0676638037
0.06995833333,0.06766368449
0.06997916667,0.06750449538
0.07,0.06744921952
0.07002083333,0.06720940769
0.07004166667,0.06700839102
0.0700625,0.0666763559
0.07008333333,0.06638768315
0.07010416667,0.06599351019
0.070125,0.0656882301
0.07014583333,0.06524770707
0.07016666667,0.06503012031
0.0701875,0.06461607665
0.07020833333,0.06447159499
0.07022916667,0.06409996748
0.07025,0.06395457685
0.07027083333,0.06378526241
0.07029166667,0.06384087354
0.0703125,0.06388837844
0.07033333333,0.0639853552
0.07035416667,0.06418206543
0.070375,0.06440738589
0.07039583333,0.06457519531
0.07041666667,0.06496286392
0.0704375,0.06537407637
0.07045833333,0.06589376926
0.07047916667,0.06635992974
0.0705,0.06702558696
0.07052083333,0.06764642894
0.07054166667,0.06828422099
0.0705625,0.06890354306
0.07058333333,0.06958956271
0.07060416667,0.07017139345
0.070625,0.07088727504
0.07064583333,0.0715329051
0.07066666667,0.07213597
0.0706875,0.07261806726
0.07070833333,0.07322194427
0.07072916667,0.07357873023
0.07075,0.07401647419
0.07077083333,0.07427926362
0.07079166667,0.07443284988
0.0708125,0.07453066111
0.07083333333,0.07450821251
0.07085416667,0.07434827089
0.070875,0.07416290045
0.07089583333,0.07380690426
0.07091666667,0.07356056571
0.0709375,0.0731620267
0.07095833333,0.07283256948
0.07097916667,0.07241547108
0.071,0.07198150456
0.07102083333,0.07152018696
0.07104166667,0.070982337
0.0710625,0.07056073099
0.07108333333,0.07004150748
0.07110416667,0.06951487064
0.071125,0.06886779517
0.07114583333,0.06825848669
0.07116666667,0.06760707498
0.0711875,0.06701395661
0.07120833333,0.06638862938
0.07122916667,0.06582915038
0.07125,0.06528423727
0.07127083333,0.06470689923
0.07129166667,0.0641188249
0.0713125,0.06353560835
0.07133333333,0.06299560517
0.07135416667,0.06256464124
0.071375,0.06207348034
0.07139583333,0.06168886274
0.07141666667,0.06114719063
0.0714375,0.06083375961
0.07145833333,0.06048611179
0.07147916667,0.06030083448
0.0715,0.06014847755
0.07152083333,0.0600467585
0.07154166667,0.05994951352
0.0715625,0.0600489527
0.07158333333,0.06002298743
0.07160416667,0.0602748692
0.071625,0.06029754132
0.07164583333,0.06060194969
0.07166666667,0.06061875075
0.0716875,0.06097055599
0.07170833333,0.06123529375
0.07172916667,0.06158678234
0.07175,0.06195535511
0.07177083333,0.0624098666
0.07179166667,0.06268144399
0.0718125,0.06301860511
0.07183333333,0.06330683082
0.07185416667,0.06368368119
0.071875,0.06395732611
0.07189583333,0.06439548731
0.07191666667,0.06459698826
0.0719375,0.06487880647
0.07195833333,0.06495933235
0.07197916667,0.06509198993
0.072,0.06503337622
0.07202083333,0.06511049718
0.07204166667,0.06498772651
0.0720625,0.06506749988
0.07208333333,0.06493162364
0.07210416667,0.06492992491
0.072125,0.06467430294
0.07214583333,0.06448993087
0.07216666667,0.06418398023
0.0721875,0.0639192909
0.07220833333,0.06364184618
0.07222916667,0.06338278949
0.07225,0.06305678189
0.07227083333,0.06277848035
0.07229166667,0.0624858886
0.0723125,0.06225655228
0.07233333333,0.06193745881
0.07235416667,0.06169009954
0.072375,0.06135693565
0.07239583333,0.0610996522
0.07241666667,0.06084571779
0.0724375,0.06061205268
0.07245833333,0.0604067333
0.07247916667,0.06020721421
0.0725,0.06012528762
0.07252083333,0.05988647044
0.07254166667,0.05976521596
0.0725625,0.05951739475
0.07258333333,0.05944256857
0.07260416667,0.05926363915
0.072625,0.05911467597
0.07264583333,0.0589761138
0.07266666667,0.05888364464
0.0726875,0.05871143937
0.07270833333,0.05857035145
0.07272916667,0.05836352706
0.07275,0.05822682753
0.07277083333,0.05813909322
0.07279166667,0.05801780522
0.0728125,0.05787764117
0.07283333333,0.05773742497
0.07285416667,0.05744564161
0.072875,0.05723560974
0.07289583333,0.05697584525
0.07291666667,0.05683553219
0.0729375,0.05655272678
0.07295833333,0.05636949092
0.07297916667,0.05597997084
0.073,0.05578615144
0.07302083333,0.05543589965
0.07304166667,0.05525825918
0.0730625,0.05477116257
0.07308333333,0.05457369238
0.07310416667,0.05416949093
0.073125,0.05387603864
0.07314583333,0.05342644826
0.07316666667,0.05316558853
0.0731875,0.05277131125
0.07320833333,0.05252705142
0.07322916667,0.05210550874
0.07325,0.05192045867
0.07327083333,0.05148233473
0.07329166667,0.05123160779
0.0733125,0.05077399313
0.07333333333,0.05050401762
0.07335416667,0.04999580979
0.073375,0.04970701039
0.07339583333,0.04912275076
0.07341666667,0.04877759144
0.0734375,0.04815851897
0.07345833333,0.04775008559
0.07347916667,0.04708084837
0.0735,0.04656268284
0.07352083333,0.04586401209
0.07354166667,0.04536949098
0.0735625,0.04470607638
0.07358333333,0.04418595135
0.07360416667,0.04335801676
0.073625,0.04275085777
0.07364583333,0.04196849838
0.07366666667,0.04125230014
0.0736875,0.04050537571
0.07370833333,0.03994460031
0.07372916667,0.03932376951
0.07375,0.03885294497
0.07377083333,0.03822609037
0.07379166667,0.03763404489
0.0738125,0.03714129701
0.07383333333,0.03659839556
0.07385416667,0.03615755588
0.073875,0.03580885753
0.07389583333,0.03531929478
0.07391666667,0.03495204821
0.0739375,0.03448753431
0.07395833333,0.03398545831
0.07397916667,0.03359137848
0.074,0.0331263952
0.07402083333,0.03260098398
0.07404166667,0.0321219489
0.0740625,0.0315169543
0.07408333333,0.03096991964
0.07410416667,0.03028897196
0.074125,0.02950386517
0.07414583333,0.02886804007
0.07416666667,0.02815458551
0.0741875,0.02751601301
0.07420833333,0.0268772915
0.07422916667,0.02622456476
0.07425,0.02557869442
0.07427083333,0.02501770854
0.07429166667,0.02431439981
0.0743125,0.02382139862
0.07433333333,0.02325695939
0.07435416667,0.02287382074
0.074375,0.02238960378
0.07439583333,0.02205290459
0.07441666667,0.02174585126
0.0744375,0.02155107632
0.07445833333,0.02122518048
0.07447916667,0.02111353353
0.0745,0.02091695555
0.07452083333,0.02104548365
0.07454166667,0.0208829809
0.0745625,0.02107294649
0.07458333333,0.0209358409
0.07460416667,0.02117921039
0.074625,0.02120447904
0.07464583333,0.02135250531
0.07466666667,0.02137913182
0.0746875,0.02147592418
0.07470833333,0.02145268396
0.07472916667,0.02152951434
0.07475,0.02143826149
0.07477083333,0.0216085352
0.07479166667,0.02141335979
0.0748125,0.02141717635
0.07483333333,0.02124225907
0.07485416667,0.0212220978
0.074875,0.02084850334
0.07489583333,0.02079697885
0.07491666667,0.0203996636
0.0749375,0.02009277605
0.07495833333,0.01975807175
0.07497916667,0.01931858622
0.075,0.01888497919
0.07502083333,0.01842372492
0.07504166667,0.01786032692
0.0750625,0.01732042246
0.07508333333,0.01673377305
0.07510416667,0.01613376476
0.075125,0.0155106103
0.07514583333,0.0149010364
0.07516666667,0.01414072793
0.0751875,0.01335678902
0.07520833333,0.01250235271
0.07522916667,0.0116421273
0.07525,0.01075677201
0.07527083333,0.00992674008
0.07529166667,0.009144209325
0.0753125,0.008300846443
0.07533333333,0.007507474627
0.07535416667,0.006742664147
0.075375,0.00591927208
0.07539583333,0.005224644206
0.07541666667,0.004415770061
0.0754375,0.003686307231
0.07545833333,0.003010271117
0.07547916667,0.002209820785
0.0755,0.001618116745
0.07552083333,0.0009294341435
0.07554166667,0.0003201846266
0.0755625,-0.0003755302459
0.07558333333,-0.001005517901
0.07560416667,-0.001622292213
0.075625,-0.002346803201
0.07564583333,-0.002921865787
0.07566666667,-0.00351435598
0.0756875,-0.004236136097
0.07570833333,-0.004778301343
0.07572916667,-0.00553394109
0.07575,-0.005821126513
0.07577083333,-0.006656385027
0.07579166667,-0.006917486433
0.0758125,-0.007446405478
0.07583333333,-0.007298523095
0.07585416667,-0.007639722899
0.075875,-0.00776516879
0.07589583333,-0.008156511933
0.07591666667,-0.008261831477
0.0759375,-0.008516684175
0.07595833333,-0.008874117397
0.07597916667,-0.009218808264
0.076,-0.009356377646
0.07602083333,-0.009888786823
0.07604166667,-0.009929257445
0.0760625,-0.01045240648
0.07608333333,-0.01061225589
0.07610416667,-0.01113121957
0.076125,-0.01139574498
0.07614583333,-0.01185960788
0.07616666667,-0.01209044829
0.0761875,-0.01261113305
0.07620833333,-0.012822574
0.07622916667,-0.01331965812
0.07625,-0.01344860252
0.07627083333,-0.01392814796
0.07629166667,-0.0141315544
0.0763125,-0.01449844148
0.07633333333,-0.01471494604
0.07635416667,-0.01499183849
0.076375,-0.01523522288
0.07639583333,-0.01552579645
0.07641666667,-0.01569841057
0.0764375,-0.01596825942
0.07645833333,-0.01609710418
0.07647916667,-0.01644161344
0.0765,-0.01650768891
0.07652083333,-0.01677368954
0.07654166667,-0.01684678346
0.0765625,-0.01706799865
0.07658333333,-0.01716773584
0.07660416667,-0.01730922237
0.076625,-0.01743559726
0.07664583333,-0.01751615293
0.07666666667,-0.01760046929
0.0766875,-0.0175381396
0.07670833333,-0.01751203462
0.07672916667,-0.01750002056
0.07675,-0.01750199124
0.07677083333,-0.01745674573
0.07679166667,-0.01746102609
0.0768125,-0.01727842912
0.07683333333,-0.01729460992
0.07685416667,-0.01725881919
0.076875,-0.01711115614
0.07689583333,-0.01716460474
0.07691666667,-0.01698281989
0.0769375,-0.01712796651
0.07695833333,-0.01701680198
0.07697916667,-0.01673124544
0.077,-0.01666952297
0.07702083333,-0.01658502221
0.07704166667,-0.01641285978
0.0770625,-0.01640496776
0.07708333333,-0.01643747091
0.07710416667,-0.01649024338
0.077125,-0.01674198918
0.07714583333,-0.01655341312
0.07716666667,-0.01678866148
0.0771875,-0.01672426239
0.07720833333,-0.01699910685
0.07722916667,-0.01704018563
0.07725,-0.01733958721
0.07727083333,-0.01745264977
0.07729166667,-0.01779683121
0.0773125,-0.01791960187
0.07733333333,-0.01825481653
0.07735416667,-0.01838515513
0.077375,-0.01883793809
0.07739583333,-0.01893694699
0.07741666667,-0.0194246769
0.0774375,-0.01974464208
0.07745833333,-0.02036347426
0.07747916667,-0.02075795457
0.0775,-0.02139409818
0.07752083333,-0.02197120339
0.07754166667,-0.02270695567
0.0775625,-0.0233797878
0.07758333333,-0.02415749989
0.07760416667,-0.02497322299
0.077625,-0.02587841451
0.07764583333,-0.0267413985
0.07766666667,-0.0277214665
0.0776875,-0.0286184717
0.07770833333,-0.02963670157
0.07772916667,-0.03053053096
0.07775,-0.03152622283
0.07777083333,-0.03245729581
0.07779166667,-0.0334908329
0.0778125,-0.0343612209
0.07783333333,-0.03532525152
0.07785416667,-0.03619566187
0.077875,-0.03714470565
0.07789583333,-0.03804312274
0.07791666667,-0.03879604116
0.0779375,-0.03957743198
0.07795833333,-0.04039995
0.07797916667,-0.04109987989
0.078,-0.04200182855
0.07802083333,-0.0427021496
0.07804166667,-0.04351829737
0.0780625,-0.04423755035
0.07808333333,-0.04501712322
0.07810416667,-0.04571062326
0.078125,-0.04642317817
0.07814583333,-0.04710102454
0.07816666667,-0.04777772352
0.0781875,-0.04843493551
0.07820833333,-0.04907118529
0.07822916667,-0.04970565438
0.07825,-0.05027473345
0.07827083333,-0.05074186996
0.07829166667,-0.05117066205
0.0783125,-0.05152680352
0.07833333333,-0.05185290426
0.07835416667,-0.05212746561
0.078375,-0.05233836174
0.07839583333,-0.05249537528
0.07841666667,-0.05258763582
0.0784375,-0.05261057243
0.07845833333,-0.05258382484
0.07847916667,-0.05249978974
0.0785,-0.05229826644
0.07852083333,-0.05220364034
0.07854166667,-0.05193684995
0.0785625,-0.05174065754
0.07858333333,-0.05142854154
0.07860416667,-0.05109417439
0.078625,-0.05070646852
0.07864583333,-0.05033216625
0.07866666667,-0.04999138415
0.0786875,-0.0496625416
0.07870833333,-0.0492641218
0.07872916667,-0.0489006117
0.07875,-0.04851330444
0.07877083333,-0.04819429293
0.07879166667,-0.04780568182
0.0788125,-0.04748289287
0.07883333333,-0.04710494354
0.07885416667,-0.04678779095
0.078875,-0.04649725929
0.07889583333,-0.04631432891
0.07891666667,-0.04613521695
0.0789375,-0.04596512765
0.07895833333,-0.04577693343
0.07897916667,-0.04575997964
0.079,-0.0454890132
0.07902083333,-0.04548772797
0.07904166667,-0.04535318911
0.0790625,-0.04541023448
0.07908333333,-0.04540272057
0.07910416667,-0.04535669088
0.079125,-0.0454206951
0.07914583333,-0.04544358328
0.07916666667,-0.04547863826
0.0791875,-0.04558750987
0.07920833333,-0.04556804895
0.07922916667,-0.04572657496
0.07925,-0.04585981369
0.07927083333,-0.04606324062
0.07929166667,-0.04624384269
0.0793125,-0.04651352018
0.07933333333,-0.04669448361
0.07935416667,-0.04701850563
0.079375,-0.04728562757
0.07939583333,-0.04756017029
0.07941666667,-0.04777948931
0.0794375,-0.04803299904
0.07945833333,-0.04830675572
0.07947916667,-0.04869127274
0.0795,-0.04900841042
0.07952083333,-0.04940406606
0.07954166667,-0.04977365583
0.0795625,-0.05028692633
0.07958333333,-0.05069598183
0.07960416667,-0.05110590905
0.079625,-0.05145677179
0.07964583333,-0.05189427361
0.07966666667,-0.05222209543
0.0796875,-0.05259379372
0.07970833333,-0.05293059722
0.07972916667,-0.05327819288
0.07975,-0.05350466073
0.07977083333,-0.05384566262
0.07979166667,-0.05405871198
0.0798125,-0.05429176986
0.07983333333,-0.05441756919
0.07985416667,-0.05456005409
0.079875,-0.05463855714
0.07989583333,-0.05466816947
0.07991666667,-0.05470180884
0.0799375,-0.05477987602
0.07995833333,-0.0546887666
0.07997916667,-0.05469341576
0.08,-0.05456701666
0.08002083333,-0.05441138521
0.08004166667,-0.05419616029
0.0800625,-0.05400087312
0.08008333333,-0.05387222022
0.08010416667,-0.05368563533
0.080125,-0.0536057204
0.08014583333,-0.05352538452
0.08016666667,-0.05339393392
0.0801875,-0.05319012329
0.08020833333,-0.05302751809
0.08022916667,-0.05292632431
0.08025,-0.05293841287
0.08027083333,-0.05291861296
0.08029166667,-0.05301101506
0.0803125,-0.05316853896
0.08033333333,-0.05335799977
0.08035416667,-0.05362885073
0.080375,-0.05393837392
0.08039583333,-0.05434155464
0.08041666667,-0.05490578339
0.0804375,-0.05540178344
0.08045833333,-0.05599765107
0.08047916667,-0.05663101003
0.0805,-0.05731122196
0.08052083333,-0.05801375955
0.08054166667,-0.05871383101
0.0805625,-0.05939279869
0.08058333333,-0.06006916985
0.08060416667,-0.06067797542
0.080625,-0.06134277582
0.08064583333,-0.0619340688
0.08066666667,-0.06254751235
0.0806875,-0.06303223222
0.08070833333,-0.06351594627
0.08072916667,-0.06388266385
0.08075,-0.06418320537
0.08077083333,-0.06437593699
0.08079166667,-0.06448151916
0.0808125,-0.06447558105
0.08083333333,-0.06433238834
0.08085416667,-0.06405325234
0.080875,-0.06385567039
0.08089583333,-0.06341096759
0.08091666667,-0.06314416975
0.0809375,-0.06276670843
0.08095833333,-0.06236850098
0.08097916667,-0.06195643172
0.081,-0.0614271313
0.08102083333,-0.06084075198
0.08104166667,-0.06025984883
0.0810625,-0.05963647366
0.08108333333,-0.05907742679
0.08110416667,-0.05841362849
0.081125,-0.0578000918
0.08114583333,-0.05711103231
0.08116666667,-0.05652320385
0.0811875,-0.05582291633
0.08120833333,-0.05522558466
0.08122916667,-0.05459436029
0.08125,-0.05396888778
0.08127083333,-0.05333919078
0.08129166667,-0.0527363196
0.0813125,-0.05217735469
0.08133333333,-0.05173037574
0.08135416667,-0.05123285577
0.081375,-0.05087178573
0.08139583333,-0.05046652257
0.08141666667,-0.05009963736
0.0814375,-0.04970626533
0.08145833333,-0.04939395189
0.08147916667,-0.0490809083
0.0815,-0.0489474684
0.08152083333,-0.04884576052
0.08154166667,-0.04881285876
0.0815625,-0.04879749194
0.08158333333,-0.04889053106
0.08160416667,-0.04898792878
0.081625,-0.0491688177
0.08164583333,-0.04934137315
0.08166666667,-0.04957106709
0.0816875,-0.04980065674
0.08170833333,-0.05014522746
0.08172916667,-0.05039635301
0.08175,-0.05077949911
0.08177083333,-0.05105062574
0.08179166667,-0.05160240084
0.0818125,-0.0519107841
0.08183333333,-0.05241062865
0.08185416667,-0.05264725909
0.081875,-0.05303657055
0.08189583333,-0.05332532153
0.08191666667,-0.05353814363
0.0819375,-0.05369894952
0.08195833333,-0.05384532362
0.08197916667,-0.05398286507
0.082,-0.05405959114
0.08202083333,-0.05412858725
0.08204166667,-0.05424691737
0.0820625,-0.05412498862
0.08208333333,-0.05410921946
0.08210416667,-0.05394922942
0.082125,-0.05396172032
0.08214583333,-0.05380325764
0.08216666667,-0.05372296274
0.0821875,-0.05360683799
0.08220833333,-0.05344477296
0.08222916667,-0.0533965081
0.08225,-0.05317943171
0.08227083333,-0.05298799649
0.08229166667,-0.05284888297
0.0823125,-0.05256850645
0.08233333333,-0.05241283029
0.08235416667,-0.0522123985
0.082375,-0.05201528594
0.08239583333,-0.05193934217
0.08241666667,-0.05180501565
0.0824375,-0.05177517608
0.08245833333,-0.05167929456
0.08247916667,-0.05159597471
0.0825,-0.05155811831
0.08252083333,-0.05146224424
0.08254166667,-0.05141169578
0.0825625,-0.05136883631
0.08258333333,-0.05138641968
0.08260416667,-0.05136924982
0.082625,-0.05136498064
0.08264583333,-0.05130704865
0.08266666667,-0.0513500981
0.0826875,-0.05134499818
0.08270833333,-0.05135638267
0.08272916667,-0.05135526881
0.08275,-0.05131555721
0.08277083333,-0.05134407803
0.08279166667,-0.05117566511
0.0828125,-0.05118120462
0.08283333333,-0.05096048489
0.08285416667,-0.05106137693
0.082875,-0.05086343735
0.08289583333,-0.05084915832
0.08291666667,-0.05070929229
0.0829375,-0.0504783541
0.08295833333,-0.05046914145
0.08297916667,-0.05025186762
0.083,-0.05008494109
0.08302083333,-0.0500212051
0.08304166667,-0.04984776303
0.0830625,-0.04987857863
0.08308333333,-0.04971171916
0.08310416667,-0.04964491725
0.083125,-0.04949989542
0.08314583333,-0.04938310757
0.08316666667,-0.0492027849
0.0831875,-0.04910852015
0.08320833333,-0.04887097329
0.08322916667,-0.0487790145
0.08325,-0.04850070179
0.08327083333,-0.04835059866
0.08329166667,-0.04805014282
0.0833125,-0.04787350819
0.08333333333,-0.04752698541
0.08335416667,-0.0472621657
0.083375,-0.04693296552
0.08339583333,-0.04666298628
0.08341666667,-0.04621446878
0.0834375,-0.04589815065
0.08345833333,-0.04534519091
0.08347916667,-0.044982519
0.0835,-0.04437252134
0.08352083333,-0.04390309006
0.08354166667,-0.04325477406
0.0835625,-0.04278562963
0.08358333333,-0.04220327362
0.08360416667,-0.04164009541
0.083625,-0.04096249118
0.08364583333,-0.04046603665
0.08366666667,-0.03985403478
0.0836875,-0.03937387466
0.08370833333,-0.03879922628
0.08372916667,-0.03842302039
0.08375,-0.03802457452
0.08377083333,-0.03773823753
0.08379166667,-0.03733855113
0.0838125,-0.03709936887
0.08383333333,-0.03665677458
0.08385416667,-0.03643729165
0.083875,-0.03599524125
0.08389583333,-0.03577397764
0.08391666667,-0.03539739177
0.0839375,-0.03517532349
0.08395833333,-0.03498936072
0.08397916667,-0.03471966088
0.084,-0.03434469923
0.08402083333,-0.03401401266
0.08404166667,-0.03353917971
0.0840625,-0.03312315792
0.08408333333,-0.03248200938
0.08410416667,-0.03197969869
0.084125,-0.03128298372
0.08414583333,-0.0306244418
0.08416666667,-0.02985974029
0.0841875,-0.02904639952
0.08420833333,-0.02824692428
0.08422916667,-0.0274811089
0.08425,-0.02678020485
0.08427083333,-0.02612834051
0.08429166667,-0.02544212341
0.0843125,-0.02486220561
0.08433333333,-0.02415195107
0.08435416667,-0.02357824892
0.084375,-0.02304362133
0.08439583333,-0.02263719216
0.08441666667,-0.02231794782
0.0844375,-0.02210428007
0.08445833333,-0.02196582966
0.08447916667,-0.02186522633
0.0845,-0.02176843211
0.08452083333,-0.02170372941
0.08454166667,-0.02173479088
0.0845625,-0.02179094777
0.08458333333,-0.02195998281
0.08460416667,-0.02203667909
0.084625,-0.02224619687
0.08464583333,-0.0223374106
0.08466666667,-0.02245609835
0.0846875,-0.02251082286
0.08470833333,-0.02257055603
0.08472916667,-0.0226611793
0.08475,-0.02270775288
0.08477083333,-0.02286787517
0.08479166667,-0.0228443034
0.0848125,-0.02274393663
0.08483333333,-0.02272140421
0.08485416667,-0.02244001254
0.084875,-0.02231274173
0.08489583333,-0.02189646848
0.08491666667,-0.02177945152
0.0849375,-0.02140865661
0.08495833333,-0.02095448412
0.08497916667,-0.0206138324
0.085,-0.01989201829
0.08502083333,-0.0192522835
0.08504166667,-0.01864985377
0.0850625,-0.01782807522
0.08508333333,-0.01733965613
0.08510416667,-0.01651367731
0.085125,-0.01582744904
0.08514583333,-0.01502022706
0.08516666667,-0.01432964299
0.0851875,-0.01345893554
0.08520833333,-0.01272888295
0.08522916667,-0.01182123832
0.08525,-0.01104133576
0.08527083333,-0.01012697816
0.08529166667,-0.009341051802
0.0853125,-0.008349522017
0.08533333333,-0.007579674479
0.08535416667,-0.006602604873
0.085375,-0.005831060465
0.08539583333,-0.004836615641
0.08541666667,-0.004047282506
0.0854375,-0.003045840189
0.08545833333,-0.002239247784
0.08547916667,-0.001293204958
0.0855,-0.0004886399838
0.08552083333,0.0003997674794
0.08554166667,0.001157099614
0.0855625,0.002030740958
0.08558333333,0.002716258401
0.08560416667,0.003594259964
0.085625,0.004264005926
0.08564583333,0.005119017791
0.08566666667,0.005732604768
0.0856875,0.006544730626
0.08570833333,0.007137815934
0.08572916667,0.007986578159
0.08575,0.0085072238
0.08577083333,0.009333213791
0.08579166667,0.009863510728
0.0858125,0.01072256267
0.08583333333,0.01141309552
0.08585416667,0.01217115484
0.085875,0.0132636046
0.08589583333,0.01401776075
0.08591666667,0.0150699988
0.0859375,0.01593018882
0.08595833333,0.01663030311
0.08597916667,0.01758369617
0.086,0.01824962348
0.08602083333,0.01904302463
0.08604166667,0.01957161166
0.0860625,0.02035095356
0.08608333333,0.0208515469
0.08610416667,0.02134490386
0.086125,0.02179399133
0.08614583333,0.02229585126
0.08616666667,0.02270802483
0.0861875,0.02316674776
0.08620833333,0.02354444377
0.08622916667,0.02383767627
0.08625,0.02417761832
0.08627083333,0.02441092953
0.08629166667,0.02470056154
0.0863125,0.0248959139
0.08633333333,0.0251396317
0.08635416667,0.02538530156
0.086375,0.02561121248
0.08639583333,0.02580952831
0.08641666667,0.02598651685
0.0864375,0.02609590068
0.08645833333,0.02638719603
0.08647916667,0.02647036128
0.0865,0.02678538673
0.08652083333,0.02685836516
0.08654166667,0.02713210322
0.0865625,0.02723682858
0.08658333333,0.02742254362
0.08660416667,0.02749247849
0.086625,0.02767946757
0.08664583333,0.02777658589
0.08666666667,0.02788247541
0.0866875,0.02787605673
0.08670833333,0.02803535946
0.08672916667,0.0279168319
0.08675,0.02801921032
0.08677083333,0.02792014182
0.08679166667,0.02806125395
0.0868125,0.02802274749
0.08683333333,0.02811685577
0.08685416667,0.02810809016
0.086875,0.02813262679
0.08689583333,0.02816081978
0.08691666667,0.02819932625
0.0869375,0.02828457579
0.08695833333,0.02876585536
0.08697916667,0.02891376242
0.087,0.0294064898
0.08702083333,0.02953057177
0.08704166667,0.02987945266
0.0870625,0.03021405451
0.08708333333,0.03064662404
0.08710416667,0.03076459095
0.087125,0.03129049763
0.08714583333,0.03150579333
0.08716666667,0.03189045936
0.0871875,0.03200906515
0.08720833333,0.03227719292
0.08722916667,0.03237938881
0.08725,0.03261950985
0.08727083333,0.03263189271
0.08729166667,0.03279533982
0.0873125,0.03277593106
0.08733333333,0.03294953331
0.08735416667,0.03294829652
0.087375,0.03316653147
0.08739583333,0.0332573466
0.08741666667,0.03353371844
0.0874375,0.03367877379
0.08745833333,0.03401030228
0.08747916667,0.03434162959
0.0875,0.03488894552
0.08752083333,0.03545566648
0.08754166667,0.0362197347
0.0875625,0.03690006584
0.08758333333,0.03774191067
0.08760416667,0.03849521279
0.087625,0.03933538496
0.08764583333,0.04018283635
0.08766666667,0.04108049721
0.0876875,0.04198891297
0.08770833333,0.04297988862
0.08772916667,0.04388586804
0.08775,0.04483254999
0.08777083333,0.04575249925
0.08779166667,0.04657312483
0.0878125,0.04745279253
0.08783333333,0.0482558459
0.08785416667,0.04902124032
0.087875,0.04990122467
0.08789583333,0.05074933916
0.08791666667,0.05163198709
0.0879375,0.05251774937
0.08795833333,0.0534992516
0.08797916667,0.05431234837
0.088,0.05532914773
0.08802083333,0.05618222803
0.08804166667,0.0570438616
0.0880625,0.05803669989
0.08808333333,0.05888571218
0.08810416667,0.05986399576
0.088125,0.06079622358
0.08814583333,0.06166156381
0.08816666667,0.06260342896
0.0881875,0.06333313137
0.08820833333,0.06408315152
0.08822916667,0.0647392869
0.08825,0.06546659023
0.08827083333,0.06608077884
0.08829166667,0.0666122511
0.0883125,0.06712587178
0.08833333333,0.06756925583
0.08835416667,0.06785558164
0.088375,0.06806626171
0.08839583333,0.06818260998
0.08841666667,0.06820032746
0.0884375,0.06816777587
0.08845833333,0.06805516034
0.08847916667,0.06783222407
0.0885,0.06763056666
0.08852083333,0.06728107482
0.08854166667,0.06694821268
0.0885625,0.06651882082
0.08858333333,0.0660712719
0.08860416667,0.06568456441
0.088625,0.06515762955
0.08864583333,0.0647687465
0.08866666667,0.06425371021
0.0886875,0.06385160983
0.08870833333,0.0634631291
0.08872916667,0.06309393793
0.08875,0.06272988021
0.08877083333,0.0623293817
0.08879166667,0.06184650213
0.0888125,0.06138909236
0.08883333333,0.06095615029
0.08885416667,0.06063207611
0.088875,0.06034591794
0.08889583333,0.0600753054
0.08891666667,0.05980775878
0.0889375,0.05951171741
0.08895833333,0.05931502581
0.08897916667,0.05901332945
0.089,0.05881081522
0.08902083333,0.05862778053
0.08904166667,0.05839516595
0.0890625,0.05832684785
0.08908333333,0.05810796842
0.08910416667,0.05808997899
0.089125,0.05801263824
0.08914583333,0.05797371268
0.08916666667,0.05801963434
0.0891875,0.05803649873
0.08920833333,0.05816911533
0.08922916667,0.05835976452
0.08925,0.05846723914
0.08927083333,0.05866686255
0.08929166667,0.05890051648
0.0893125,0.05922512338
0.08933333333,0.05952361971
0.08935416667,0.05986211821
0.089375,0.0600723289
0.08939583333,0.06041839719
0.08941666667,0.06064850837
0.0894375,0.06095297635
0.08945833333,0.06125860661
0.08947916667,0.06155730784
0.0895,0.061832387
0.08952083333,0.06220297143
0.08954166667,0.06232846528
0.0895625,0.06266361475
0.08958333333,0.06293594092
0.08960416667,0.06325966865
0.089625,0.0635503754
0.08964583333,0.06387738138
0.08966666667,0.06416384876
0.0896875,0.06443867832
0.08970833333,0.06455361843
0.08972916667,0.06470977515
0.08975,0.06481400132
0.08977083333,0.06501226872
0.08979166667,0.0651204437
0.0898125,0.06534061581
0.08983333333,0.0653931424
0.08985416667,0.06542101502
0.089875,0.06534689665
0.08989583333,0.06533358991
0.08991666667,0.06534162909
0.0899375,0.06532991678
0.08995833333,0.06531681865
0.08997916667,0.06547924131
0.09,0.06535708159
0.09002083333,0.06536728889
0.09004166667,0.06527264416
0.0900625,0.06518090516
0.09008333333,0.06506048143
0.09010416667,0.06498479843
0.090125,0.06479629129
0.09014583333,0.06469485909
0.09016666667,0.0644525066
0.0901875,0.06428875029
0.09020833333,0.06411739439
0.09022916667,0.06396402419
0.09025,0.06379061937
0.09027083333,0.06368999928
0.09029166667,0.06363731623
0.0903125,0.06363463402
0.09033333333,0.06367474794
0.09035416667,0.06381848454
0.090375,0.0639462918
0.09039583333,0.06422691792
0.09041666667,0.06451505423
0.0904375,0.06491624564
0.09045833333,0.06536800414
0.09047916667,0.06597520411
0.0905,0.06664609909
0.09052083333,0.06739775836
0.09054166667,0.0681701228
0.0905625,0.06894556433
0.09058333333,0.06971716881
