time,data
0,-7.533669333e-08
2.083333333e-05,-1.171261843e-07
4.166666667e-05,-1.542460382e-07
6.25e-05,-1.862466235e-07
8.333333333e-05,-2.17254879e-07
0.0001041666667,-2.505086627e-07
0.000125,-2.863558279e-07
0.0001458333333,-3.231159837e-07
0.0001666666667,-3.565688189e-07
0.0001875,-3.868648832e-07
0.0002083333333,-4.15396471e-07
0.0002291666667,-4.474298407e-07
0.00025,-4.858240459e-07
0.0002708333333,-5.304378305e-07
0.0002916666667,-5.789001989e-07
0.0003125,-6.266330388e-07
0.0003333333333,-6.735787679e-07
0.0003541666667,-7.194930163e-07
0.000375,-7.674595963e-07
0.0003958333333,-8.174383765e-07
0.0004166666667,-8.673697494e-07
0.0004375,-9.147034916e-07
0.0004583333333,-9.555936913e-07
0.0004791666667,-9.912176893e-07
0.0005,-1.0216595e-06
0.0005208333333,-1.050321089e-06
0.0005416666667,-1.078146738e-06
0.0005625,-1.1058155e-06
0.0005833333333,-1.134184117e-06
0.0006041666667,-1.162140848e-06
0.000625,-1.191086994e-06
0.0006458333333,-1.219056799e-06
0.0006666666667,-1.246987836e-06
0.0006875,-1.27393298e-06
0.0007083333333,-1.300672352e-06
0.0007291666667,-1.327327141e-06
0.00075,-1.350650223e-06
0.0007708333333,-1.368069434e-06
0.0007916666667,-1.373169312e-06
0.0008125,-1.366438141e-06
0.0008333333333,-1.349061677e-06
0.0008541666667,-1.327173322e-06
0.000875,-1.304968464e-06
0.0008958333333,-1.280290348e-06
0.0009166666667,-1.25073268e-06
0.0009375,-1.209936954e-06
0.0009583333333,-1.162004423e-06
0.0009791666667,-1.113083044e-06
0.001,-1.072157033e-06
0.001020833333,-1.042296617e-06
0.001041666667,-1.014848408e-06
0.0010625,-9.805597756e-07
0.001083333333,-9.286983982e-07
0.001104166667,-8.628949786e-07
0.001125,-7.910080626e-07
0.001145833333,-7.21657841e-07
0.001166666667,-6.54871485e-07
0.0011875,-5.790019486e-07
0.001208333333,-4.840522365e-07
0.001229166667,-3.653810268e-07
0.00125,-2.348157437e-07
0.001270833333,-1.075658744e-07
0.001291666667,3.95081301e-09
0.0013125,1.017508637e-07
0.001333333333,1.984764708e-07
0.001354166667,3.039852459e-07
0.001375,4.215501122e-07
0.001395833333,5.376886634e-07
0.001416666667,6.426292884e-07
0.0014375,7.313699371e-07
0.001458333333,8.147644053e-07
0.001479166667,9.104969081e-07
0.0015,1.027042913e-06
0.001520833333,1.165154458e-06
0.001541666667,1.308820856e-06
0.0015625,1.448084618e-06
0.001583333333,1.578357001e-06
0.001604166667,1.705854174e-06
0.001625,1.840259756e-06
0.001645833333,1.980109118e-06
0.001666666667,2.119687451e-06
0.0016875,2.243859853e-06
0.001708333333,2.347265081e-06
0.001729166667,2.430127097e-06
0.00175,2.501675453e-06
0.001770833333,2.570746801e-06
0.001791666667,2.639969352e-06
0.0018125,2.710754643e-06
0.001833333333,2.778310545e-06
0.001854166667,2.846093594e-06
0.001875,2.91365086e-06
0.001895833333,2.984464345e-06
0.001916666667,3.059038136e-06
0.0019375,3.133741757e-06
0.001958333333,3.210312343e-06
0.001979166667,3.281285217e-06
0.002,3.345548976e-06
0.002020833333,3.391938435e-06
0.002041666667,3.413995728e-06
0.0020625,3.41058103e-06
0.002083333333,3.384735919e-06
0.002104166667,3.351484338e-06
0.002125,3.314142759e-06
0.002145833333,3.27503335e-06
0.002166666667,3.224014563e-06
0.0021875,3.154577371e-06
0.002208333333,3.074106189e-06
0.002229166667,2.995301656e-06
0.00225,2.938974603e-06
0.002270833333,2.904754865e-06
0.002291666667,2.880079364e-06
0.0023125,2.83932809e-06
0.002333333333,2.766573971e-06
0.002354166667,2.666489991e-06
0.002375,2.555703759e-06
0.002395833333,2.452607987e-06
0.002416666667,2.352197043e-06
0.0024375,2.236129149e-06
0.002458333333,2.079839078e-06
0.002479166667,1.880247623e-06
0.0025,1.658837959e-06
0.002520833333,1.446790634e-06
0.002541666667,1.269437007e-06
0.0025625,1.11891643e-06
0.002583333333,9.763842854e-07
0.002604166667,8.170124488e-07
0.002625,6.408115496e-07
0.002645833333,4.676141145e-07
0.002666666667,3.1703334e-07
0.0026875,1.974535166e-07
0.002708333333,8.54585025e-08
0.002729166667,-4.579178992e-08
0.00275,-2.174918876e-07
0.002770833333,-4.255904571e-07
0.002791666667,-6.467197409e-07
0.0028125,-8.629885997e-07
0.002833333333,-1.064188268e-06
0.002854166667,-1.263855779e-06
0.002875,-1.469368499e-06
0.002895833333,-1.683547225e-06
0.002916666667,-1.891607894e-06
0.0029375,-2.07418816e-06
0.002958333333,-2.223775027e-06
0.002979166667,-2.339416596e-06
0.003,-2.436496743e-06
0.003020833333,-2.523219109e-06
0.003041666667,-2.607546094e-06
0.0030625,-2.692680482e-06
0.003083333333,-2.780361001e-06
0.003104166667,-2.878123723e-06
0.003125,-2.984187176e-06
0.003145833333,-3.099788728e-06
0.003166666667,-3.215338438e-06
0.0031875,-3.330797654e-06
0.003208333333,-3.446532673e-06
0.003229166667,-3.564513008e-06
0.00325,-3.680696636e-06
0.003270833333,-3.773359367e-06
0.003291666667,-3.826041848e-06
0.0033125,-3.824834494e-06
0.003333333333,-3.784325372e-06
0.003354166667,-3.730502613e-06
0.003375,-3.682522902e-06
0.003395833333,-3.645938932e-06
0.003416666667,-3.595012458e-06
0.0034375,-3.517558753e-06
0.003458333333,-3.412417527e-06
0.003479166667,-3.313118896e-06
0.0035,-3.256310265e-06
0.003520833333,-3.25205383e-06
0.003541666667,-3.278486702e-06
0.0035625,-3.283186516e-06
0.003583333333,-3.234215683e-06
0.003604166667,-3.131727681e-06
0.003625,-3.01201294e-06
0.003645833333,-2.910533112e-06
0.003666666667,-2.826974878e-06
0.0036875,-2.727951141e-06
0.003708333333,-2.564715714e-06
0.003729166667,-2.328415121e-06
0.00375,-2.048968781e-06
0.003770833333,-1.791000955e-06
0.003791666667,-1.596013817e-06
0.0038125,-1.461390525e-06
0.003833333333,-1.347082616e-06
0.003854166667,-1.206081265e-06
0.003875,-1.035831701e-06
0.003895833333,-8.640728311e-07
0.003916666667,-7.369263813e-07
0.0039375,-6.663430554e-07
0.003958333333,-6.190199997e-07
0.003979166667,-5.443145596e-07
0.004,-3.968908118e-07
0.004020833333,-1.874907838e-07
0.004041666667,5.166016592e-08
0.0040625,2.74061108e-07
0.004083333333,4.670839928e-07
0.004104166667,6.470355061e-07
0.004125,8.366178577e-07
0.004145833333,1.046498483e-06
0.004166666667,1.251340905e-06
0.0041875,1.42102931e-06
0.004208333333,1.527672339e-06
0.004229166667,1.574716407e-06
0.00425,1.584038159e-06
0.004270833333,1.579811055e-06
0.004291666667,1.58484545e-06
0.0043125,1.596920242e-06
0.004333333333,1.6234751e-06
0.004354166667,1.654747166e-06
0.004375,1.696751951e-06
0.004395833333,1.746696171e-06
0.004416666667,1.803999908e-06
0.0044375,1.87661044e-06
0.004458333333,1.95855182e-06
0.004479166667,2.053533535e-06
0.0045,2.133636372e-06
0.004520833333,2.17134675e-06
0.004541666667,2.139764774e-06
0.0045625,2.030772066e-06
0.004583333333,1.880139507e-06
0.004604166667,1.717615305e-06
0.004625,1.57781551e-06
0.004645833333,1.44234707e-06
0.004666666667,1.283400593e-06
0.0046875,1.077850925e-06
0.004708333333,8.428097544e-07
0.004729166667,6.392030514e-07
0.00475,5.14477108e-07
0.004770833333,4.837524443e-07
0.004791666667,4.886302918e-07
0.0048125,4.570099463e-07
0.004833333333,3.409437852e-07
0.004854166667,1.552436544e-07
0.004875,-3.204994314e-08
0.004895833333,-1.807249816e-07
0.004916666667,-2.889263442e-07
0.0049375,-4.346147193e-07
0.004958333333,-6.774240546e-07
0.004979166667,-1.033847752e-06
0.005,-1.437636229e-06
0.005020833333,-1.785934387e-06
0.005041666667,-2.024768719e-06
0.0050625,-2.159908945e-06
0.005083333333,-2.273295877e-06
0.005104166667,-2.422599891e-06
0.005125,-2.613342986e-06
0.005145833333,-2.788308166e-06
0.005166666667,-2.874496886e-06
0.0051875,-2.868183401e-06
0.005208333333,-2.815196922e-06
0.005229166667,-2.815813332e-06
0.00525,-2.915495088e-06
0.005270833333,-3.107682915e-06
0.005291666667,-3.324340241e-06
0.0053125,-3.50223354e-06
0.005333333333,-3.630751053e-06
0.005354166667,-3.732895266e-06
0.005375,-3.85839985e-06
0.005395833333,-4.002008609e-06
0.005416666667,-4.134772098e-06
0.0054375,-4.196884674e-06
0.005458333333,-4.155013357e-06
0.005479166667,-4.026157058e-06
0.0055,-3.833523351e-06
0.005520833333,-3.634895393e-06
0.005541666667,-3.430918696e-06
0.0055625,-3.240446404e-06
0.005583333333,-3.053060709e-06
0.005604166667,-2.873369567e-06
0.005625,-2.716365771e-06
0.005645833333,-2.570729066e-06
0.005666666667,-2.449863359e-06
0.0056875,-2.334024202e-06
0.005708333333,-2.232873157e-06
0.005729166667,-2.137300271e-06
0.00575,-2.023173693e-06
0.005770833333,-1.862983595e-06
0.005791666667,-1.602387442e-06
0.0058125,-1.248488502e-06
0.005833333333,-8.132554399e-07
0.005854166667,-3.66406681e-07
0.005875,6.173728195e-08
0.005895833333,4.713195096e-07
0.005916666667,8.974756724e-07
0.0059375,1.381677862e-06
0.005958333333,1.89001787e-06
0.005979166667,2.36859637e-06
0.006,2.727728543e-06
0.006020833333,2.960371148e-06
0.006041666667,3.126623369e-06
0.0060625,3.322197244e-06
0.006083333333,3.630855417e-06
0.006104166667,4.015740615e-06
0.006125,4.423754035e-06
0.006145833333,4.76450623e-06
0.006166666667,5.059655905e-06
0.0061875,5.38693439e-06
0.006208333333,5.831854196e-06
0.006229166667,6.424362709e-06
0.00625,7.063311386e-06
0.006270833333,7.635907423e-06
0.006291666667,8.042642548e-06
0.0063125,8.308357792e-06
0.006333333333,8.524129953e-06
0.006354166667,8.769549822e-06
0.006375,9.061075616e-06
0.006395833333,9.306897482e-06
0.006416666667,9.440133908e-06
0.0064375,9.424285054e-06
0.006458333333,9.355388102e-06
0.006479166667,9.336051335e-06
0.0065,9.447465345e-06
0.006520833333,9.671879525e-06
0.006541666667,9.911909729e-06
0.0065625,1.010513006e-05
0.006583333333,1.020691161e-05
0.006604166667,1.028234055e-05
0.006625,1.036585218e-05
0.006645833333,1.046433954e-05
0.006666666667,1.053653068e-05
0.0066875,1.048343711e-05
0.006708333333,1.02957938e-05
0.006729166667,9.957208022e-06
0.00675,9.544877685e-06
0.006770833333,9.098100236e-06
0.006791666667,8.644556146e-06
0.0068125,8.194845577e-06
0.006833333333,7.732761333e-06
0.006854166667,7.283018476e-06
0.006875,6.838507034e-06
0.006895833333,6.420720638e-06
0.006916666667,6.013422535e-06
0.0069375,5.616308954e-06
0.006958333333,5.229630005e-06
0.006979166667,4.831848855e-06
0.007,4.415562671e-06
0.007020833333,3.898432624e-06
0.007041666667,3.26022564e-06
0.0070625,2.460917813e-06
0.007083333333,1.563056458e-06
0.007104166667,6.390299632e-07
0.007125,-2.676164286e-07
0.007145833333,-1.141458711e-06
0.007166666667,-2.068270078e-06
0.0071875,-3.060141353e-06
0.007208333333,-4.109257588e-06
0.007229166667,-5.104387583e-06
0.00725,-5.935459285e-06
0.007270833333,-6.600790584e-06
0.007291666667,-7.160723726e-06
0.0073125,-7.794390513e-06
0.007333333333,-8.560758033e-06
0.007354166667,-9.461229638e-06
0.007375,-1.036747017e-05
0.007395833333,-1.118432556e-05
0.007416666667,-1.193335265e-05
0.0074375,-1.27121566e-05
0.007458333333,-1.367492223e-05
0.007479166667,-1.481873733e-05
0.0075,-1.604575846e-05
0.007520833333,-1.71585707e-05
0.007541666667,-1.803722989e-05
0.0075625,-1.871604036e-05
0.007583333333,-1.93011474e-05
0.007604166667,-1.994606464e-05
0.007625,-2.062329258e-05
0.007645833333,-2.12618761e-05
0.007666666667,-2.171504275e-05
0.0076875,-2.196778223e-05
0.007708333333,-2.212562686e-05
0.007729166667,-2.233123269e-05
0.00775,-2.271472113e-05
0.007770833333,-2.322166438e-05
0.007791666667,-2.376552402e-05
0.0078125,-2.421380304e-05
0.007833333333,-2.454085552e-05
0.007854166667,-2.480867988e-05
0.007875,-2.505896191e-05
0.007895833333,-2.533344923e-05
0.007916666667,-2.552637852e-05
0.0079375,-2.557945663e-05
0.007958333333,-2.541019785e-05
0.007979166667,-2.505120392e-05
0.008,-2.45648589e-05
0.008020833333,-2.400417179e-05
0.008041666667,-2.342723928e-05
0.0080625,-2.281357411e-05
0.008083333333,-2.220095848e-05
0.008104166667,-2.157744893e-05
0.008125,-2.097055949e-05
0.008145833333,-2.037849481e-05
0.008166666667,-1.976868225e-05
0.0081875,-1.916278779e-05
0.008208333333,-1.852066998e-05
0.008229166667,-1.788875852e-05
0.00825,-1.719678403e-05
0.008270833333,-1.640230585e-05
0.008291666667,-1.541777601e-05
0.0083125,-1.420399713e-05
0.008333333333,-1.284151222e-05
0.008354166667,-1.13977967e-05
0.008375,-9.999003851e-06
0.008395833333,-8.612789316e-06
0.008416666667,-7.186633866e-06
0.0084375,-5.655575478e-06
0.008458333333,-4.024621376e-06
0.008479166667,-2.455700496e-06
0.0085,-1.045215186e-06
0.008520833333,1.17023653e-07
0.008541666667,1.176733235e-06
0.0085625,2.292177669e-06
0.008583333333,3.606540304e-06
0.008604166667,5.107585821e-06
0.008625,6.635811587e-06
0.008645833333,8.091033123e-06
0.008666666667,9.435070751e-06
0.0086875,1.084338965e-05
0.008708333333,1.2453208e-05
0.008729166667,1.43156858e-05
0.00875,1.629872713e-05
0.008770833333,1.814234565e-05
0.008791666667,1.972983591e-05
0.0088125,2.102492363e-05
0.008833333333,2.223697811e-05
0.008854166667,2.347910049e-05
0.008875,2.479452451e-05
0.008895833333,2.605689042e-05
0.008916666667,2.709357068e-05
0.0089375,2.790099279e-05
0.008958333333,2.855606544e-05
0.008979166667,2.930225128e-05
0.009,3.023897625e-05
0.009020833333,3.135981751e-05
0.009041666667,3.252799797e-05
0.0090625,3.356926391e-05
0.009083333333,3.44817563e-05
0.009104166667,3.5270019e-05
0.009125,3.607068356e-05
0.009145833333,3.685479896e-05
0.009166666667,3.756866499e-05
0.0091875,3.808759357e-05
0.009208333333,3.832185757e-05
0.009229166667,3.831500362e-05
0.00925,3.810593262e-05
0.009270833333,3.782137355e-05
0.009291666667,3.748276504e-05
0.0093125,3.712557736e-05
0.009333333333,3.675311018e-05
0.009354166667,3.635374014e-05
0.009375,3.596431998e-05
0.009395833333,3.553615898e-05
0.009416666667,3.510995521e-05
0.0094375,3.463889152e-05
0.009458333333,3.417132393e-05
0.009479166667,3.367723184e-05
0.0095,3.310099055e-05
0.009520833333,3.235734766e-05
0.009541666667,3.131031553e-05
0.0095625,2.998640593e-05
0.009583333333,2.842976937e-05
0.009604166667,2.681747901e-05
0.009625,2.523330113e-05
0.009645833333,2.364435386e-05
0.009666666667,2.197220056e-05
0.0096875,2.008755837e-05
0.009708333333,1.809818605e-05
0.009729166667,1.613604945e-05
0.00975,1.443373549e-05
0.009770833333,1.300268468e-05
0.009791666667,1.168981362e-05
0.0098125,1.024911853e-05
0.009833333333,8.490444998e-06
0.009854166667,6.502146789e-06
0.009875,4.445165359e-06
0.009895833333,2.536552302e-06
0.009916666667,7.327884077e-07
0.0099375,-1.166799734e-06
0.009958333333,-3.372794481e-06
0.009979166667,-5.971370229e-06
0.01,-1.927171979e-05
0.01002083333,-2.892896555e-05
0.01004166667,-3.396033935e-05
0.0100625,-3.560893674e-05
0.01008333333,-3.456585182e-05
0.01010416667,-3.510206443e-05
0.010125,-3.437377018e-05
0.01014583333,-3.660647781e-05
0.01016666667,-3.658008063e-05
0.0101875,-3.755683429e-05
0.01020833333,-3.749976895e-05
0.01022916667,-4.017509855e-05
0.01025,-4.265591269e-05
0.01027083333,-4.612018529e-05
0.01029166667,-4.823266863e-05
0.0103125,-5.057871022e-05
0.01033333333,-5.202495959e-05
0.01035416667,-5.542745203e-05
0.010375,-5.780724314e-05
0.01039583333,-6.268236029e-05
0.01041666667,-6.415740063e-05
0.0104375,-6.569538527e-05
0.01045833333,-6.591808778e-05
0.01047916667,-6.840836431e-05
0.0105,-7.013324648e-05
0.01052083333,-7.311595255e-05
0.01054166667,-7.324216131e-05
0.0105625,-7.266939792e-05
0.01058333333,-7.167288277e-05
0.01060416667,-7.222085696e-05
0.010625,-7.176138752e-05
0.01064583333,-7.456990716e-05
0.01066666667,-7.37707087e-05
0.0106875,-7.362572069e-05
0.01070833333,-6.939458399e-05
0.01072916667,-6.916344864e-05
0.01075,-6.838041008e-05
0.01077083333,-7.090989675e-05
0.01079166667,-7.170862955e-05
0.0108125,-7.181806723e-05
0.01083333333,-6.960956671e-05
0.01085416667,-6.941455649e-05
0.010875,-6.828273763e-05
0.01089583333,-7.054202433e-05
0.01091666667,-6.846273754e-05
0.0109375,-6.969911192e-05
0.01095833333,-6.606306124e-05
0.01097916667,-6.664563989e-05
0.011,-6.183148798e-05
0.01102083333,-5.865257481e-05
0.01104166667,-5.422007234e-05
0.0110625,-4.963943502e-05
0.01108333333,-4.60803567e-05
0.01110416667,-4.680265556e-05
0.011125,-4.486026592e-05
0.01114583333,-4.598119267e-05
0.01116666667,-4.242549403e-05
0.0111875,-4.231211278e-05
0.01120833333,-3.799707702e-05
0.01122916667,-3.95823663e-05
0.01125,-3.714259947e-05
0.01127083333,-3.739487875e-05
0.01129166667,-3.276396092e-05
0.0113125,-2.868455158e-05
0.01133333333,-2.240570757e-05
0.01135416667,-2.22823619e-05
0.011375,-1.995185448e-05
0.01139583333,-2.152720845e-05
0.01141666667,-1.750975935e-05
0.0114375,-1.426191102e-05
0.01145833333,-6.820944691e-06
0.01147916667,-8.034057828e-06
0.0115,-5.018964657e-06
0.01152083333,-7.520256986e-06
0.01154166667,-4.369976523e-06
0.0115625,-1.062964657e-06
0.01158333333,4.216135494e-06
0.01160416667,4.860979971e-06
0.011625,4.322120731e-06
0.01164583333,-2.331580617e-07
0.01166666667,1.411179255e-06
0.0116875,2.326047252e-06
0.01170833333,9.303321349e-06
0.01172916667,6.896509149e-06
0.01175,6.224196113e-06
0.01177083333,-1.969820005e-07
0.01179166667,2.571869118e-07
0.0118125,1.45228114e-06
0.01183333333,7.986549463e-06
0.01185416667,9.519746527e-06
0.011875,1.102345414e-05
0.01189583333,9.852927178e-06
0.01191666667,1.207054447e-05
0.0119375,1.409004835e-05
0.01195833333,2.207684156e-05
0.01197916667,1.901876385e-05
0.012,2.037384911e-05
0.01202083333,9.075898561e-06
0.01204166667,5.878333468e-06
0.0120625,1.767948561e-07
0.01208333333,3.793014912e-06
0.01210416667,9.413925e-07
0.012125,-2.655233402e-06
0.01214583333,-6.467926141e-06
0.01216666667,-4.845656804e-06
0.0121875,-8.005277778e-06
0.01220833333,-2.577038686e-06
0.01222916667,-4.59198418e-06
0.01225,-2.065753506e-07
0.01227083333,-3.889508662e-06
0.01229166667,5.958463589e-07
0.0123125,-1.585940481e-07
0.01233333333,7.891980204e-06
0.01235416667,1.34745278e-06
0.012375,-5.707028322e-06
0.01239583333,-1.771772804e-05
0.01241666667,-2.345231223e-05
0.0124375,-3.210265641e-05
0.01245833333,-2.803444113e-05
0.01247916667,-2.656926517e-05
0.0125,-2.332822078e-05
0.01252083333,-2.636926001e-05
0.01254166667,-2.41247526e-05
0.0125625,-3.161950008e-05
0.01258333333,-3.039334115e-05
0.01260416667,-3.914297849e-05
0.012625,-4.310114673e-05
0.01264583333,-4.650858318e-05
0.01266666667,-4.020449342e-05
0.0126875,-3.624972305e-05
0.01270833333,-2.579515785e-05
0.01272916667,-2.400701669e-05
0.01275,-2.300478809e-05
0.01277083333,-3.776069934e-05
0.01279166667,-4.135218478e-05
0.0128125,-5.268742098e-05
0.01283333333,-5.36980333e-05
0.01285416667,-5.682886695e-05
0.012875,-6.103343549e-05
0.01289583333,-7.154967898e-05
0.01291666667,-7.219971303e-05
0.0129375,-7.805042696e-05
0.01295833333,-7.605410792e-05
0.01297916667,-7.851691771e-05
0.013,-7.461191854e-05
0.01302083333,-8.058162348e-05
0.01304166667,-7.676350651e-05
0.0130625,-7.871606795e-05
0.01308333333,-6.773784844e-05
0.01310416667,-6.79637451e-05
0.013125,-6.904303882e-05
0.01314583333,-7.639358955e-05
0.01316666667,-7.510619616e-05
0.0131875,-7.683213335e-05
0.01320833333,-6.673792086e-05
0.01322916667,-6.672764721e-05
0.01325,-7.685975288e-05
0.01327083333,-8.653713303e-05
0.01329166667,-9.311433678e-05
0.0133125,-0.0001131252939
0.01333333333,-9.657542978e-05
0.01335416667,-9.813806537e-05
0.013375,-9.496259008e-05
0.01339583333,-9.465630865e-05
0.01341666667,-8.943850116e-05
0.0134375,-8.848957077e-05
0.01345833333,-7.568536967e-05
0.01347916667,-7.711130456e-05
0.0135,-7.607135194e-05
0.01352083333,-8.380436338e-05
0.01354166667,-7.95602682e-05
0.0135625,-8.105956658e-05
0.01358333333,-6.88502696e-05
0.01360416667,-6.849368219e-05
0.013625,-6.738775846e-05
0.01364583333,-7.611701585e-05
0.01366666667,-7.733431994e-05
0.0136875,-8.409642032e-05
0.01370833333,-7.861120685e-05
0.01372916667,-8.354018792e-05
0.01375,-7.984540571e-05
0.01377083333,-8.500269178e-05
0.01379166667,-7.872783317e-05
0.0138125,-8.004000119e-05
0.01383333333,-7.521348016e-05
0.01385416667,-7.262895815e-05
0.013875,-6.141670747e-05
0.01389583333,-6.647933333e-05
0.01391666667,-6.339730317e-05
0.0139375,-5.888640226e-05
0.01395833333,-5.032416448e-05
0.01397916667,-4.411496047e-05
0.014,-3.3334607e-05
0.01402083333,-4.868619362e-05
0.01404166667,-4.685669046e-05
0.0140625,-4.976700802e-05
0.01408333333,-3.855087562e-05
0.01410416667,-3.724292401e-05
0.014125,-3.029214167e-05
0.01414583333,-4.641638589e-05
0.01416666667,-5.599603901e-05
0.0141875,-5.992099614e-05
0.01420833333,-5.74699734e-05
0.01422916667,-4.965385961e-05
0.01425,-3.372704305e-05
0.01427083333,-4.092675954e-05
0.01429166667,-4.082295345e-05
0.0143125,-4.160657045e-05
0.01433333333,-4.072822776e-05
0.01435416667,-5.20233516e-05
0.014375,-4.036722748e-05
0.01439583333,-3.987307718e-05
0.01441666667,-1.74269735e-05
0.0144375,-4.858255124e-06
0.01445833333,1.116029307e-05
0.01447916667,8.883574992e-06
0.0145,1.341931238e-05
0.01452083333,-1.138486641e-05
0.01454166667,-2.546348696e-05
0.0145625,-3.753036435e-05
0.01458333333,-4.445260493e-05
0.01460416667,-5.322874495e-05
0.014625,-5.157465785e-05
0.01464583333,-7.26293365e-05
0.01466666667,-7.157276559e-05
0.0146875,-6.714808842e-05
0.01470833333,-3.559159086e-05
0.01472916667,-3.379177997e-06
0.01475,3.353926149e-05
0.01477083333,3.786871821e-05
0.01479166667,3.022308192e-05
0.0148125,2.889204734e-05
0.01483333333,3.619524796e-05
0.01485416667,1.587131374e-05
0.014875,-2.272953679e-05
0.01489583333,-8.319298649e-05
0.01491666667,-0.000136117611
0.0149375,-0.0001634258224
0.01495833333,-0.0001148502197
0.01497916667,-3.016684605e-05
0.015,9.334251081e-05
0.01502083333,0.0001624155411
0.01504166667,0.0001770423842
0.0150625,0.0001227820176
0.01508333333,4.440165867e-05
0.01510416667,-3.224130342e-05
0.015125,-4.656784586e-05
0.01514583333,-3.739432577e-05
0.01516666667,-5.965433957e-06
0.0151875,1.404987415e-06
0.01520833333,4.12998088e-06
0.01522916667,-2.905417205e-06
0.01525,2.514480366e-05
0.01527083333,4.545808042e-05
0.01529166667,7.285024913e-05
0.0153125,7.932496374e-05
0.01533333333,7.200747496e-05
0.01535416667,4.456959505e-05
0.015375,4.164402344e-05
0.01539583333,1.843972495e-05
0.01541666667,2.15433447e-05
0.0154375,-2.58970249e-06
0.01545833333,-1.611751577e-05
0.01547916667,-3.708712029e-05
0.0155,-3.22553351e-05
0.01552083333,1.568738298e-06
0.01554166667,3.425937757e-05
0.0155625,6.673016469e-05
0.01558333333,8.368885756e-05
0.01560416667,5.428762233e-05
0.015625,3.988390745e-05
0.01564583333,1.015051203e-05
0.01566666667,1.856355448e-05
0.0156875,2.595471415e-05
0.01570833333,3.390810889e-05
0.01572916667,2.419803968e-05
0.01575,1.883312689e-05
0.01577083333,1.350986531e-05
0.01579166667,3.782940257e-05
0.0158125,5.018874435e-05
0.01583333333,5.148775745e-05
0.01585416667,3.002627454e-05
0.015875,-3.617760285e-06
0.01589583333,-3.263571125e-05
0.01591666667,-3.548209861e-05
0.0159375,-3.700603338e-05
0.01595833333,-1.443453584e-06
0.01597916667,-4.298833119e-06
0.016,3.565983206e-07
0.01602083333,-1.401321879e-05
0.01604166667,-1.038027949e-05
0.0160625,-1.821467777e-05
0.01608333333,7.113661923e-06
0.01610416667,3.016493429e-05
0.016125,4.792491382e-05
0.01614583333,4.234082735e-05
0.01616666667,2.215907261e-05
0.0161875,8.954619261e-06
0.01620833333,1.051867366e-05
0.01622916667,-9.820925698e-06
0.01625,-1.889566192e-05
0.01627083333,-3.356297748e-05
0.01629166667,-3.00708125e-05
0.0163125,-4.007106327e-05
0.01633333333,-2.931940617e-05
0.01635416667,-4.302732123e-05
0.016375,-4.138511576e-05
0.01639583333,-3.593417568e-05
0.01641666667,-3.382972136e-05
0.0164375,-4.699180499e-05
0.01645833333,-4.546948185e-05
0.01647916667,-3.239388025e-05
0.0165,-2.395641422e-05
0.01652083333,-2.528127879e-05
0.01654166667,2.705266525e-06
0.0165625,1.520892329e-05
0.01658333333,5.900764518e-05
0.01660416667,4.586101932e-05
0.016625,5.45859657e-05
0.01664583333,1.921677904e-05
0.01666666667,-3.53008727e-06
0.0166875,-2.41882226e-05
0.01670833333,-2.612108437e-05
0.01672916667,-1.278133641e-05
0.01675,-2.636190766e-05
0.01677083333,-5.968429468e-05
0.01679166667,-4.643583088e-05
0.0168125,-4.403839557e-05
0.01683333333,-1.890536623e-05
0.01685416667,5.458885425e-06
0.016875,2.36759297e-05
0.01689583333,-3.709463272e-06
0.01691666667,-1.081724986e-05
0.0169375,-2.738515104e-05
0.01695833333,-5.631502063e-06
0.01697916667,1.616559348e-05
0.017,5.604624312e-05
0.01702083333,6.010445941e-05
0.01704166667,5.460776447e-05
0.0170625,4.929914212e-05
0.01708333333,4.925591929e-05
0.01710416667,5.816288467e-05
0.017125,6.574416329e-05
0.01714583333,4.197928138e-05
0.01716666667,4.341170279e-05
0.0171875,1.909429193e-05
0.01720833333,2.414594201e-05
0.01722916667,2.464988938e-05
0.01725,4.338532017e-05
0.01727083333,3.452525198e-05
0.01729166667,3.759307583e-05
0.0173125,4.789108789e-05
0.01733333333,7.451355486e-05
0.01735416667,9.980593313e-05
0.017375,0.0001172007469
0.01739583333,0.0001149836753
0.01741666667,8.364942914e-05
0.0174375,4.015558807e-05
0.01745833333,3.786669549e-05
0.01747916667,5.165967377e-05
0.0175,8.802701632e-05
0.01752083333,0.0001384035859
0.01754166667,0.000167558348
0.0175625,0.0001299518917
0.01758333333,0.0001088454374
0.01760416667,8.992701623e-05
0.017625,7.676571113e-05
0.01764583333,9.476448031e-05
0.01766666667,0.000115704519
0.0176875,0.0001184153734
0.01770833333,0.0001225553278
0.01772916667,0.0001217662211
0.01775,0.0001154270431
0.01777083333,0.0001040455318
0.01779166667,0.0001423629583
0.0178125,0.0001273589587
0.01783333333,0.0001299736905
0.01785416667,9.098870942e-05
0.017875,0.0001079290159
0.01789583333,8.433399489e-05
0.01791666667,9.91294728e-05
0.0179375,9.048618085e-05
0.01795833333,8.99748411e-05
0.01797916667,7.810095849e-05
0.018,7.901373465e-05
0.01802083333,0.0001019338451
0.01804166667,0.0001517660276
0.0180625,0.0001452362922
0.01808333333,0.0001462708751
0.01810416667,0.0001201162522
0.018125,0.0001294372778
0.01814583333,9.74079594e-05
0.01816666667,8.992172661e-05
0.0181875,9.140053589e-05
0.01820833333,9.107975347e-05
0.01822916667,7.206216105e-05
0.01825,6.284668052e-05
0.01827083333,7.222909335e-05
0.01829166667,6.506952923e-05
0.0183125,7.172548794e-05
0.01833333333,6.557177403e-05
0.01835416667,3.786407251e-05
0.018375,2.945862434e-05
0.01839583333,6.675672921e-07
0.01841666667,1.20610548e-05
0.0184375,2.813101491e-05
0.01845833333,7.753427781e-05
0.01847916667,7.970076695e-05
0.0185,3.323950659e-05
0.01852083333,1.118608361e-05
0.01854166667,7.975586414e-06
0.0185625,2.900377513e-05
0.01858333333,5.227613656e-05
0.01860416667,9.081567987e-05
0.018625,0.0001175224097
0.01864583333,8.602891467e-05
0.01866666667,8.439211524e-05
0.0186875,4.938200073e-05
0.01870833333,5.6843317e-05
0.01872916667,3.330445907e-06
0.01875,-1.001176133e-05
0.01877083333,-2.416246207e-05
0.01879166667,-2.111249341e-05
0.0188125,-1.234390584e-05
0.01883333333,1.087821875e-05
0.01885416667,2.344143286e-05
0.018875,2.830250742e-05
0.01889583333,2.37891436e-05
0.01891666667,2.311437493e-05
0.0189375,2.30490914e-05
0.01895833333,7.430054393e-05
0.01897916667,8.365530812e-05
0.019,0.0001192558921
0.01902083333,0.0001113828184
0.01904166667,0.0001490188588
0.0190625,0.0001565560233
0.01908333333,0.0001652605424
0.01910416667,0.0001576476061
0.019125,0.0001398122986
0.01914583333,0.0001223397267
0.01916666667,0.0001131686004
0.0191875,0.0001435526792
0.01920833333,0.0001630358165
0.01922916667,0.0001079383655
0.01925,0.0001186253721
0.01927083333,0.0001073085514
0.01929166667,0.0001535164774
0.0193125,0.0001922473894
0.01933333333,0.0002103901497
0.01935416667,0.0001970343583
0.019375,0.0001895446039
0.01939583333,0.0001769637165
0.01941666667,0.0001999160886
0.0194375,0.0002573610982
0.01945833333,0.0003296036157
0.01947916667,0.0003215204051
0.0195,0.0002618022263
0.01952083333,0.0001757466234
0.01954166667,0.000161122618
0.0195625,0.0001809678215
0.01958333333,0.0002359014761
0.01960416667,0.0002318095067
0.019625,0.0001856414747
0.01964583333,9.031363152e-05
0.01966666667,5.425038762e-05
0.0196875,0.0001168610761
0.01970833333,0.0002352698648
0.01972916667,0.0003186352842
0.01975,0.0003491436073
0.01977083333,0.0002609895309
0.01979166667,0.0002239572932
0.0198125,0.0001843065693
0.01983333333,0.0002416912175
0.01985416667,0.0003121638729
0.019875,0.0003000238794
0.01989583333,0.0002076099481
0.01991666667,3.112497507e-05
0.0199375,-0.0001421347988
0.01995833333,-0.0001540071098
0.01997916667,4.059091589e-05
0.02,0.0002597676939
0.02002083333,0.00040761946
0.02004166667,0.0004371424438
0.0200625,0.0003094911226
0.02008333333,0.0001624982833
0.02010416667,8.939434338e-05
0.020125,0.0001303372264
0.02014583333,0.000208363781
0.02016666667,0.0003001394798
0.0201875,0.0003032145614
0.02020833333,0.0002336682956
0.02022916667,0.0001400601177
0.02025,7.729082427e-05
0.02027083333,0.000104199411
0.02029166667,0.0002399835794
0.0203125,0.0003386492608
0.02033333333,0.0004072475422
0.02035416667,0.0003734584025
0.020375,0.0003232148883
0.02039583333,0.0002552591905
0.02041666667,0.0002729544358
0.0204375,0.0002715881274
0.02045833333,0.0002585567127
0.02047916667,0.000252561731
0.0205,0.0002320338244
0.02052083333,0.0002368409478
0.02054166667,0.0002599285799
0.0205625,0.0003126363445
0.02058333333,0.0003638529161
0.02060416667,0.0004184291465
0.020625,0.0004299310967
0.02064583333,0.0004359330051
0.02066666667,0.0004857797467
0.0206875,0.0004940795479
0.02070833333,0.0005479385727
0.02072916667,0.0005399637739
0.02075,0.0005203165347
0.02077083333,0.0005025583087
0.02079166667,0.0004925832618
0.0208125,0.0005118945264
0.02083333333,0.0005076592206
0.02085416667,0.0004824183707
0.020875,0.0004894032027
0.02089583333,0.000472703483
0.02091666667,0.0005261319457
0.0209375,0.0005251924158
0.02095833333,0.0005046050646
0.02097916667,0.0004893459263
0.021,0.0004836665757
0.02102083333,0.0004961643135
0.02104166667,0.0005805395776
0.0210625,0.0006303602713
0.02108333333,0.0006401105784
0.02110416667,0.0006271138554
0.021125,0.0005895931972
0.02114583333,0.0005564672756
0.02116666667,0.0006304015405
0.0211875,0.0007733961684
0.02120833333,0.0008625341579
0.02122916667,0.0008490274195
0.02125,0.0007423230563
0.02127083333,0.0005745093222
0.02129166667,0.0004831503611
0.0213125,0.000468268292
0.02133333333,0.0004676626413
0.02135416667,0.0004565481213
0.021375,0.0004368712544
0.02139583333,0.0003619838972
0.02141666667,0.0003613392182
0.0214375,0.0004359879822
0.02145833333,0.0005308873951
0.02147916667,0.0006091435207
0.0215,0.0006117608864
0.02152083333,0.0005743174697
0.02154166667,0.0005751363933
0.0215625,0.0005881228717
0.02158333333,0.0006286001299
0.02160416667,0.0006278057699
0.021625,0.0005650690291
0.02164583333,0.0004593683989
0.02166666667,0.0004516070185
0.0216875,0.0004656859091
0.02170833333,0.0005361075746
0.02172916667,0.0005644021439
0.02175,0.0005275260191
0.02177083333,0.0004653763317
0.02179166667,0.0003756661608
0.0218125,0.0003436749685
0.02183333333,0.0004161143152
0.02185416667,0.0004575843923
0.021875,0.0004812771222
0.02189583333,0.0003985635994
0.02191666667,0.0003614015004
0.0219375,0.0004291619407
0.02195833333,0.0005440864479
0.02197916667,0.0006826656754
0.022,0.0007859974867
0.02202083333,0.0007143374532
0.02204166667,0.0006753191119
0.0220625,0.000697316078
0.02208333333,0.0007475818857
0.02210416667,0.0008561615832
0.022125,0.00089643721
0.02214583333,0.0007544041728
0.02216666667,0.0006591185229
0.0221875,0.0005949594779
0.02220833333,0.0006669810391
0.02222916667,0.0007486699615
0.02225,0.0007946396363
0.02227083333,0.000784942531
0.02229166667,0.0007891525747
0.0223125,0.000848048192
0.02233333333,0.0009335329523
0.02235416667,0.001037096139
0.022375,0.00103587762
0.02239583333,0.0008722022176
0.02241666667,0.0007430599653
0.0224375,0.0006766794249
0.02245833333,0.0008157445118
0.02247916667,0.001129228156
0.0225,0.001445651287
0.02252083333,0.001558052609
0.02254166667,0.001494003925
0.0225625,0.0012639208
0.02258333333,0.001087591634
0.02260416667,0.00100512139
0.022625,0.001076605171
0.02264583333,0.00113492657
0.02266666667,0.001152619021
0.0226875,0.001092032646
0.02270833333,0.001098956796
0.02272916667,0.001139496104
0.02275,0.00118992338
0.02277083333,0.001239887322
0.02279166667,0.001251342124
0.0228125,0.001236745738
0.02283333333,0.001232046168
0.02285416667,0.00127679517
0.022875,0.00139694789
0.02289583333,0.001388503006
0.02291666667,0.001312399167
0.0229375,0.001185387489
0.02295833333,0.00116298045
0.02297916667,0.001189914183
0.023,0.001329678809
0.02302083333,0.001417754334
0.02304166667,0.001403828966
0.0230625,0.001277699834
0.02308333333,0.001136913081
0.02310416667,0.00110211398
0.023125,0.001245965832
0.02314583333,0.001338821719
0.02316666667,0.001402203226
0.0231875,0.001440637978
0.02320833333,0.00131777802
0.02322916667,0.00128731213
0.02325,0.001362278708
0.02327083333,0.00140390615
0.02329166667,0.00142087834
0.0233125,0.001344570657
0.02333333333,0.001209187554
0.02335416667,0.001078731962
0.023375,0.001079356414
0.02339583333,0.00111900433
0.02341666667,0.001261188416
0.0234375,0.001365587348
0.02345833333,0.00124655012
0.02347916667,0.001132068573
0.0235,0.001066889032
0.02352083333,0.00110736303
0.02354166667,0.001259601791
0.0235625,0.001352768857
0.02358333333,0.001407595933
0.02360416667,0.001366577693
0.023625,0.001260636491
0.02364583333,0.001187850605
0.02366666667,0.00121939485
0.0236875,0.001235700678
0.02370833333,0.001335479901
0.02372916667,0.001348183374
0.02375,0.001352728694
0.02377083333,0.001284616417
0.02379166667,0.00125558069
0.0238125,0.001154650119
0.02383333333,0.001200109138
0.02385416667,0.001152872341
0.023875,0.001111392747
0.02389583333,0.001110681216
0.02391666667,0.001222304534
0.0239375,0.001345269149
0.02395833333,0.001414212515
0.02397916667,0.00136573601
0.024,0.001256409218
0.02402083333,0.00116021221
0.02404166667,0.001142915688
0.0240625,0.001203840948
0.02408333333,0.001329761697
0.02410416667,0.001337094116
0.024125,0.001202651532
0.02414583333,0.001063168864
0.02416666667,0.0009724255651
0.0241875,0.0009106589132
0.02420833333,0.0009655921021
0.02422916667,0.0009935160633
0.02425,0.0009806819726
0.02427083333,0.0008979210397
0.02429166667,0.0008571632206
0.0243125,0.0008604231407
0.02433333333,0.0009183149086
0.02435416667,0.0009525958449
0.024375,0.0008954632212
0.02439583333,0.0007896809257
0.02441666667,0.000771053019
0.0244375,0.0008545758319
0.02445833333,0.000991214416
0.02447916667,0.001094087027
0.0245,0.001091249054
0.02452083333,0.00091972464
0.02454166667,0.0006644122186
0.0245625,0.0005114435917
0.02458333333,0.0005527148605
0.02460416667,0.0006232185988
0.024625,0.0006490938831
0.02464583333,0.0005786554539
0.02466666667,0.0004206970043
0.0246875,0.0003502816544
0.02470833333,0.0003467762144
0.02472916667,0.0004734596878
0.02475,0.0005804354441
0.02477083333,0.0004996631178
0.02479166667,0.0004444481456
0.0248125,0.0004484979436
0.02483333333,0.000604202738
0.02485416667,0.0007924120873
0.024875,0.0008851193124
0.02489583333,0.0006617957843
0.02491666667,0.0002555242972
0.0249375,-0.0001200660045
0.02495833333,-0.0002683818748
0.02497916667,-8.229840751e-05
0.025,0.0003080029855
0.02502083333,0.0005971146747
0.02504166667,0.0006426247419
0.0250625,0.0004518032656
0.02508333333,0.0001855836599
0.02510416667,4.374142736e-05
0.025125,6.953123375e-05
0.02514583333,1.831853297e-05
0.02516666667,-8.899686509e-05
0.0251875,-0.0002800356597
0.02520833333,-0.000423317455
0.02522916667,-0.0002575435792
0.02525,0.0001299818978
0.02527083333,0.0005202122265
0.02529166667,0.000732511864
0.0253125,0.0007372595137
0.02533333333,0.0005352056469
0.02535416667,0.0003973930143
0.025375,0.0003799214901
0.02539583333,0.0003967270604
0.02541666667,0.0004068053968
0.0254375,0.0002799793729
0.02545833333,8.357982733e-05
0.02547916667,-0.0001650811173
0.0255,-0.0001774637203
0.02552083333,-6.242402014e-05
0.02554166667,5.905682337e-05
0.0255625,0.0001761882158
0.02558333333,7.404215285e-05
0.02560416667,3.86616739e-05
0.025625,0.0001932369196
0.02564583333,0.0003526326618
0.02566666667,0.000568941352
0.0256875,0.0006041198503
0.02570833333,0.0004827465164
0.02572916667,0.0003965100041
0.02575,0.0004578285152
0.02577083333,0.0005377195776
0.02579166667,0.0007212632918
0.0258125,0.0007661369164
0.02583333333,0.0005940211704
0.02585416667,0.0003146855743
0.025875,0.0001060717041
0.02589583333,-1.7976854e-06
0.02591666667,8.325109957e-05
0.0259375,0.0001869787229
0.02595833333,6.787112216e-05
0.02597916667,-9.427033365e-05
0.026,-0.0001911422005
0.02602083333,-0.0002258344321
0.02604166667,-4.65735211e-05
0.0260625,0.0002163659083
0.02608333333,0.0002697799355
0.02610416667,0.0002029099269
0.026125,-7.512746379e-06
0.02614583333,-0.0001158699743
0.02616666667,2.111203503e-05
0.0261875,0.0002280672779
0.02620833333,0.0003015485127
0.02622916667,0.0003001923906
0.02625,0.0001344486373
0.02627083333,9.865034372e-07
0.02629166667,-6.624584785e-05
0.0263125,-2.43805116e-05
0.02633333333,-0.0001568879816
0.02635416667,-0.0003870765213
0.026375,-0.0005963566946
0.02639583333,-0.0006950896932
0.02641666667,-0.0006859124405
0.0264375,-0.0005007711588
0.02645833333,-0.0003932644031
0.02647916667,-0.0004047066905
0.0265,-0.0005661901087
0.02652083333,-0.0006927656359
0.02654166667,-0.0006504199118
0.0265625,-0.000388825254
0.02658333333,-0.0001846915111
0.02660416667,-0.0001565051498
0.026625,-0.0002757691545
0.02664583333,-0.0004981639795
0.02666666667,-0.0006412917282
0.0266875,-0.0006451716763
0.02670833333,-0.0006131907576
0.02672916667,-0.000733738183
0.02675,-0.000969461049
0.02677083333,-0.00128758105
0.02679166667,-0.001432246761
0.0268125,-0.001366653829
0.02683333333,-0.001098660519
0.02685416667,-0.0008957376704
0.026875,-0.0007934877649
0.02689583333,-0.0008695467259
0.02691666667,-0.0009077093564
0.0269375,-0.0008831224986
0.02695833333,-0.0008053859347
0.02697916667,-0.0006894442486
0.027,-0.000670940266
0.02702083333,-0.0007935829926
0.02704166667,-0.0008896300569
0.0270625,-0.0007638217066
0.02708333333,-0.0007195334183
0.02710416667,-0.0007412546547
0.027125,-0.0008866859134
0.02714583333,-0.001139520318
0.02716666667,-0.001285129227
0.0271875,-0.001384908683
0.02720833333,-0.001289689913
0.02722916667,-0.001264332328
0.02725,-0.001521825674
0.02727083333,-0.00184343115
0.02729166667,-0.002047146205
0.0273125,-0.001845474122
0.02733333333,-0.00145258219
0.02735416667,-0.0009296600474
0.027375,-0.0008092579665
0.02739583333,-0.0009854332311
0.02741666667,-0.001380177913
0.0274375,-0.001615215326
0.02745833333,-0.001485381857
0.02747916667,-0.001153193065
0.0275,-0.0009505737107
0.02752083333,-0.001038562274
0.02754166667,-0.001532081165
0.0275625,-0.001981711481
0.02758333333,-0.002238922287
0.02760416667,-0.00213163998
0.027625,-0.001815223601
0.02764583333,-0.001643087016
0.02766666667,-0.001737050014
0.0276875,-0.001979122637
0.02770833333,-0.002166962484
0.02772916667,-0.002080452861
0.02775,-0.001849994529
0.02777083333,-0.001604177291
0.02779166667,-0.001294064801
0.0278125,-0.001110856887
0.02783333333,-0.001035472262
0.02785416667,-0.001034751302
0.027875,-0.001131303026
0.02789583333,-0.001386152697
0.02791666667,-0.001548292232
0.0279375,-0.001675335807
0.02795833333,-0.001915295608
0.02797916667,-0.001916022389
0.028,-0.00200077612
0.02802083333,-0.002301395172
0.02804166667,-0.002413386013
0.0280625,-0.002475162502
0.02808333333,-0.002411187394
0.02810416667,-0.002253510291
0.028125,-0.00227054744
0.02814583333,-0.002383416519
0.02816666667,-0.002462621313
0.0281875,-0.002532549901
0.02820833333,-0.002485093195
0.02822916667,-0.002246689517
0.02825,-0.002101795049
0.02827083333,-0.002260602545
0.02829166667,-0.002580291592
0.0283125,-0.003074183827
0.02833333333,-0.003443245776
0.02835416667,-0.003366722725
0.028375,-0.003362352494
0.02839583333,-0.003182561835
0.02841666667,-0.003221082268
0.0284375,-0.003580371849
0.02845833333,-0.004051431082
0.02847916667,-0.004318339285
0.0285,-0.004379117396
0.02852083333,-0.004313625861
0.02854166667,-0.004004628398
0.0285625,-0.003700416535
0.02858333333,-0.003418844193
0.02860416667,-0.003393209307
0.028625,-0.003508385271
0.02864583333,-0.004021183122
0.02866666667,-0.004472906701
0.0286875,-0.004861209542
0.02870833333,-0.004696699325
0.02872916667,-0.00394550804
0.02875,-0.003338270355
0.02877083333,-0.003346757498
0.02879166667,-0.00362841133
0.0288125,-0.004368738737
0.02883333333,-0.004834461026
0.02885416667,-0.004637043457
0.028875,-0.003901139135
0.02889583333,-0.003357992042
0.02891666667,-0.002867066301
0.0289375,-0.002936411649
0.02895833333,-0.003489274532
0.02897916667,-0.003644527867
0.029,-0.0033767079
0.02902083333,-0.003156594466
0.02904166667,-0.002565246541
0.0290625,-0.002432105597
0.02908333333,-0.002304076683
0.02910416667,-0.002495234367
0.029125,-0.002567265183
0.02914583333,-0.002934527583
0.02916666667,-0.003193803364
0.0291875,-0.003331237007
0.02920833333,-0.003701918293
0.02922916667,-0.003445723327
0.02925,-0.003185180714
0.02927083333,-0.002918815706
0.02929166667,-0.00298534683
0.0293125,-0.003323384095
0.02933333333,-0.003665518481
0.02935416667,-0.003472672775
0.029375,-0.002514427993
0.02939583333,-0.001889968524
0.02941666667,-0.001438507345
0.0294375,-0.001711928286
0.02945833333,-0.002950968221
0.02947916667,-0.004081301391
0.0295,-0.004976097494
0.02952083333,-0.005214712117
0.02954166667,-0.004986237735
0.0295625,-0.004629408475
0.02958333333,-0.004991641268
0.02960416667,-0.005266655236
0.029625,-0.005467605777
0.02964583333,-0.005813123193
0.02966666667,-0.006260880269
0.0296875,-0.007102677133
0.02970833333,-0.008809904568
0.02972916667,-0.0096299164
0.02975,-0.01014816202
0.02977083333,-0.01017142087
0.02979166667,-0.009630816057
0.0298125,-0.009057371877
0.02983333333,-0.0104263071
0.02985416667,-0.0107047176
0.029875,-0.01261921413
0.02989583333,-0.01246321946
0.02991666667,-0.008953976445
0.0299375,-0.004619176034
0.02995833333,0.0001088883728
0.02997916667,0.005098084919
0.03,-0.04557135701
0.03002083333,-0.04085931927
0.03004166667,-0.03631062806
0.0300625,-0.03212109953
0.03008333333,-0.02870953642
0.03010416667,-0.02863079123
0.030125,-0.03059320897
0.03014583333,-0.03094998375
0.03016666667,-0.03235058859
0.0301875,-0.03186571971
0.03020833333,-0.03139053658
0.03022916667,-0.03149465844
0.03025,-0.03210481256
0.03027083333,-0.03296209499
0.03029166667,-0.03471565247
0.0303125,-0.0355618
0.03033333333,-0.03605046868
0.03035416667,-0.03648339584
0.030375,-0.03679623082
0.03039583333,-0.0371976383
0.03041666667,-0.03769701719
0.0304375,-0.03738653287
0.03045833333,-0.03717029467
0.03047916667,-0.03740355372
0.0305,-0.03826455027
0.03052083333,-0.03947399929
0.03054166667,-0.04082322121
0.0305625,-0.04114700481
0.03058333333,-0.04075866193
0.03060416667,-0.04022191465
0.030625,-0.03929912299
0.03064583333,-0.03915765509
0.03066666667,-0.0395847261
0.0306875,-0.03999855369
0.03070833333,-0.04014699161
0.03072916667,-0.03996134922
0.03075,-0.03972742707
0.03077083333,-0.03949004412
0.03079166667,-0.03984600306
0.0308125,-0.04002026096
0.03083333333,-0.04031975195
0.03085416667,-0.04077791795
0.030875,-0.04098435491
0.03089583333,-0.04128842056
0.03091666667,-0.04129901901
0.0309375,-0.04128282145
0.03095833333,-0.04080845043
0.03097916667,-0.04072636738
0.031,-0.04054402933
0.03102083333,-0.040826682
0.03104166667,-0.04151244089
0.0310625,-0.04171942174
0.03108333333,-0.04133811966
0.03110416667,-0.04095410183
0.031125,-0.04041728377
0.03114583333,-0.04042142257
0.03116666667,-0.04115429521
0.0311875,-0.04216798395
0.03120833333,-0.04270683974
0.03122916667,-0.04296435043
0.03125,-0.0425285548
0.03127083333,-0.04197281599
0.03129166667,-0.04202420264
0.0313125,-0.04263490066
0.03133333333,-0.043350555
0.03135416667,-0.04417346418
0.031375,-0.04457147792
0.03139583333,-0.04475641623
0.03141666667,-0.04473658279
0.0314375,-0.04465401918
0.03145833333,-0.04462184384
0.03147916667,-0.04479748756
0.0315,-0.04510949552
0.03152083333,-0.04566760734
0.03154166667,-0.04639113322
0.0315625,-0.04692693055
0.03158333333,-0.04717053473
0.03160416667,-0.04719600827
0.031625,-0.04741382599
0.03164583333,-0.04755735025
0.03166666667,-0.04815547168
0.0316875,-0.04885604978
0.03170833333,-0.04937027395
0.03172916667,-0.04968151078
0.03175,-0.0497036688
0.03177083333,-0.0496115163
0.03179166667,-0.04973042011
0.0318125,-0.05004611984
0.03183333333,-0.05030314624
0.03185416667,-0.05068416148
0.031875,-0.05090036988
0.03189583333,-0.05097098649
0.03191666667,-0.05118834972
0.0319375,-0.05150811374
0.03195833333,-0.05192516372
0.03197916667,-0.05251658335
0.032,-0.05284536257
0.03202083333,-0.05306610465
0.03204166667,-0.05355117097
0.0320625,-0.05393575132
0.03208333333,-0.0543335788
0.03210416667,-0.05489289016
0.032125,-0.05528230965
0.03214583333,-0.0555306673
0.03216666667,-0.0557032451
0.0321875,-0.05574875325
0.03220833333,-0.05568230897
0.03222916667,-0.05568351969
0.03225,-0.05571096018
0.03227083333,-0.05585603043
0.03229166667,-0.05619413406
0.0323125,-0.05657421798
0.03233333333,-0.05678807944
0.03235416667,-0.0567913875
0.032375,-0.0566078946
0.03239583333,-0.05665931478
0.03241666667,-0.05703594163
0.0324375,-0.05757242814
0.03245833333,-0.05816356093
0.03247916667,-0.05825624615
0.0325,-0.05802773312
0.03252083333,-0.0576954335
0.03254166667,-0.05752965435
0.0325625,-0.05768349022
0.03258333333,-0.05804941058
0.03260416667,-0.0581455268
0.032625,-0.05788208172
0.03264583333,-0.0572883226
0.03266666667,-0.05667957291
0.0326875,-0.05638790503
0.03270833333,-0.05647556856
0.03272916667,-0.05669997633
0.03275,-0.05682352558
0.03277083333,-0.05667633191
0.03279166667,-0.05642397329
0.0328125,-0.05636925995
0.03283333333,-0.05633646622
0.03285416667,-0.05643196404
0.032875,-0.05642781779
0.03289583333,-0.05633198842
0.03291666667,-0.05609979481
0.0329375,-0.05576807633
0.03295833333,-0.05563396215
0.03297916667,-0.05556184798
0.033,-0.05533747748
0.03302083333,-0.0550872311
0.03304166667,-0.05488643423
0.0330625,-0.05478090048
0.03308333333,-0.05465587601
0.03310416667,-0.05462872609
0.033125,-0.05441841856
0.03314583333,-0.05416964367
0.03316666667,-0.05381461605
0.0331875,-0.0537728332
0.03320833333,-0.05394234136
0.03322916667,-0.05428205431
0.03325,-0.05452472344
0.03327083333,-0.05467697605
0.03329166667,-0.05471915752
0.0333125,-0.05481888354
0.03333333333,-0.0551301986
0.03335416667,-0.0555177182
0.033375,-0.05573883653
0.03339583333,-0.05578164011
0.03341666667,-0.05556998774
0.0334375,-0.05529032648
0.03345833333,-0.05519213527
0.03347916667,-0.05531557277
0.0335,-0.05552669615
0.03352083333,-0.05556058511
0.03354166667,-0.05545721203
0.0335625,-0.05524616316
0.03358333333,-0.05517936498
0.03360416667,-0.05526618287
0.033625,-0.0554336682
0.03364583333,-0.0556159243
0.03366666667,-0.05566974729
0.0336875,-0.05547171831
0.03370833333,-0.05546335131
0.03372916667,-0.05544173717
0.03375,-0.05547854677
0.03377083333,-0.05538327992
0.03379166667,-0.05521912128
0.0338125,-0.05496409908
0.03383333333,-0.05474206433
0.03385416667,-0.05477169901
0.033875,-0.05493161455
0.03389583333,-0.05487798899
0.03391666667,-0.05471048132
0.0339375,-0.05430187657
0.03395833333,-0.05396864563
0.03397916667,-0.05387403071
0.034,-0.05383393168
0.03402083333,-0.0538077876
0.03404166667,-0.05371987075
0.0340625,-0.05337761715
0.03408333333,-0.0530930981
0.03410416667,-0.05304782838
0.034125,-0.05306201801
0.03414583333,-0.05320037156
0.03416666667,-0.05317854509
0.0341875,-0.05293172225
0.03420833333,-0.05250247195
0.03422916667,-0.05213655531
0.03425,-0.05175743997
0.03427083333,-0.05141199753
0.03429166667,-0.05121662095
0.0343125,-0.05087340623
0.03433333333,-0.05032304674
0.03435416667,-0.04985161126
0.034375,-0.04931953549
0.03439583333,-0.04902888462
0.03441666667,-0.04876192659
0.0344375,-0.04822390527
0.03445833333,-0.04779855162
0.03447916667,-0.0472888276
0.0345,-0.04685467482
0.03452083333,-0.04666218162
0.03454166667,-0.04634754732
0.0345625,-0.04593227059
0.03458333333,-0.0453661494
0.03460416667,-0.04486733675
0.034625,-0.04444165528
0.03464583333,-0.04412397742
0.03466666667,-0.04393759742
0.0346875,-0.04343994334
0.03470833333,-0.04286342114
0.03472916667,-0.04197610542
0.03475,-0.04110043868
0.03477083333,-0.04045991227
0.03479166667,-0.04021798074
0.0348125,-0.03998659924
0.03483333333,-0.03978400305
0.03485416667,-0.03958620876
0.034875,-0.03923210502
0.03489583333,-0.03913798556
0.03491666667,-0.03911622614
0.0349375,-0.03901582956
0.03495833333,-0.03868125379
0.03497916667,-0.03811034933
0.035,-0.0373050198
0.03502083333,-0.03665471077
0.03504166667,-0.03620781004
0.0350625,-0.03600567207
0.03508333333,-0.03576002643
0.03510416667,-0.03536555171
0.035125,-0.03455582261
0.03514583333,-0.0336378403
0.03516666667,-0.03268958628
0.0351875,-0.03186021373
0.03520833333,-0.03113653883
0.03522916667,-0.03051406331
0.03525,-0.02973474003
0.03527083333,-0.02895100415
0.03529166667,-0.02821683325
0.0353125,-0.0275755208
0.03533333333,-0.02691546082
0.03535416667,-0.0262249019
0.035375,-0.0253851302
0.03539583333,-0.024581559
0.03541666667,-0.02372257784
0.0354375,-0.02312424779
0.03545833333,-0.02258159034
0.03547916667,-0.02201576903
0.0355,-0.02127807215
0.03552083333,-0.02042396367
0.03554166667,-0.01946169697
0.0355625,-0.01854165643
0.03558333333,-0.01775974408
0.03560416667,-0.01711454056
0.035625,-0.01638475992
0.03564583333,-0.01553226169
0.03566666667,-0.01467554271
0.0356875,-0.01379591972
0.03570833333,-0.01294431277
0.03572916667,-0.01211667154
0.03575,-0.01108162757
0.03577083333,-0.01009287499
0.03579166667,-0.009015802294
0.0358125,-0.008086359128
0.03583333333,-0.007174811792
0.03585416667,-0.0063902447
0.035875,-0.005504214671
0.03589583333,-0.004444850143
0.03591666667,-0.003248003079
0.0359375,-0.002144624945
0.03595833333,-0.001123814378
0.03597916667,-0.0001890145359
0.036,0.0007005580701
0.03602083333,0.00161893433
0.03604166667,0.002633629832
0.0360625,0.003624515142
0.03608333333,0.004634829704
0.03610416667,0.005474111065
0.036125,0.006301404443
0.03614583333,0.00709760841
0.03616666667,0.008016301319
0.0361875,0.008621430025
0.03620833333,0.009418824688
0.03622916667,0.01008935459
0.03625,0.01088390034
0.03627083333,0.0117312558
0.03629166667,0.01266678888
0.0363125,0.01338638552
0.03633333333,0.01412934065
0.03635416667,0.01473388728
0.036375,0.01532429457
0.03639583333,0.01608006842
0.03641666667,0.01696160994
0.0364375,0.01784061268
0.03645833333,0.01879053563
0.03647916667,0.01953186467
0.0365,0.02026276104
0.03652083333,0.0210384652
0.03654166667,0.02198569663
0.0365625,0.02320286445
0.03658333333,0.02445836551
0.03660416667,0.02559391037
0.036625,0.02668528259
0.03664583333,0.02766503766
0.03666666667,0.02869929187
0.0366875,0.0297578536
0.03670833333,0.03089080192
0.03672916667,0.03206895292
0.03675,0.03336175531
0.03677083333,0.03448531404
0.03679166667,0.03559251502
0.0368125,0.03676409274
0.03683333333,0.03802118823
0.03685416667,0.03936464339
0.036875,0.04074911773
0.03689583333,0.0419597961
0.03691666667,0.04310013354
0.0369375,0.0443762131
0.03695833333,0.04578473791
0.03697916667,0.04721847549
0.037,0.04884887487
0.03702083333,0.05035933852
0.03704166667,0.05183348805
0.0370625,0.05320201814
0.03708333333,0.05466388538
0.03710416667,0.05603750795
0.037125,0.05763290823
0.03714583333,0.05902751163
0.03716666667,0.06046998501
0.0371875,0.06191332638
0.03720833333,0.06337323785
0.03722916667,0.06480561197
0.03725,0.06629868597
0.03727083333,0.06768330187
0.03729166667,0.06906841695
0.0373125,0.0703433305
0.03733333333,0.07179242373
0.03735416667,0.07333309948
0.037375,0.07494581491
0.03739583333,0.0764169246
0.03741666667,0.07773119211
0.0374375,0.07900796831
0.03745833333,0.0803629607
0.03747916667,0.08192615956
0.0375,0.08366112411
0.03752083333,0.08539909124
0.03754166667,0.08693835139
0.0375625,0.08814501762
0.03758333333,0.08927661926
0.03760416667,0.0902633965
0.037625,0.09140519053
0.03764583333,0.09259966016
0.03766666667,0.09378784895
0.0376875,0.09487234801
0.03770833333,0.09584511071
0.03772916667,0.09684289247
0.03775,0.09841729701
0.03777083333,0.1003610194
0.03779166667,0.1017771363
0.0378125,0.1029847413
0.03783333333,0.1040375605
0.03785416667,0.1049518138
0.037875,0.1063417122
0.03789583333,0.1077456996
0.03791666667,0.1090148315
0.0379375,0.1101630926
0.03795833333,0.1111116037
0.03797916667,0.1119977087
0.038,0.1130051315
0.03802083333,0.1139375269
0.03804166667,0.1147358716
0.0380625,0.1153816134
0.03808333333,0.1159320474
0.03810416667,0.1163234338
0.038125,0.1167151406
0.03814583333,0.1170670167
0.03816666667,0.1174112335
0.0381875,0.1176208258
0.03820833333,0.1176385134
0.03822916667,0.1177041754
0.03825,0.1177865937
0.03827083333,0.117861785
0.03829166667,0.118077457
0.0383125,0.1181761846
0.03833333333,0.1182783693
0.03835416667,0.1182443798
0.038375,0.1182473525
0.03839583333,0.1183618158
0.03841666667,0.1185902059
0.0384375,0.1187134236
0.03845833333,0.1188085675
0.03847916667,0.1188203096
0.0385,0.1189227626
0.03852083333,0.1191019267
0.03854166667,0.1193651631
0.0385625,0.119549714
0.03858333333,0.119629845
0.03860416667,0.1197095066
0.038625,0.1197754517
0.03864583333,0.1198085621
0.03866666667,0.1198600531
0.0386875,0.1199887767
0.03870833333,0.1200870872
0.03872916667,0.1200624332
0.03875,0.1201840267
0.03877083333,0.1202809215
0.03879166667,0.1205274239
0.0388125,0.1207609624
0.03883333333,0.1210866794
0.03885416667,0.1213380992
0.038875,0.1216233522
0.03889583333,0.1219598278
0.03891666667,0.1223734096
0.0389375,0.1227833033
0.03895833333,0.1232270896
0.03897916667,0.123642996
0.039,0.1241141856
0.03902083333,0.1244906634
0.03904166667,0.12492764
0.0390625,0.1254383475
0.03908333333,0.1260796636
0.03910416667,0.1269072294
0.039125,0.1278268248
0.03914583333,0.1289668083
0.03916666667,0.1301760525
0.0391875,0.1314113587
0.03920833333,0.1326390505
0.03922916667,0.1340076476
0.03925,0.1353029907
0.03927083333,0.1366953105
0.03929166667,0.138088882
0.0393125,0.139389798
0.03933333333,0.1408985108
0.03935416667,0.1421934962
0.039375,0.1436369121
0.03939583333,0.1451788098
0.03941666667,0.1466973126
0.0394375,0.1481442153
0.03945833333,0.1495684087
0.03947916667,0.1509495825
0.0395,0.1522876918
0.03952083333,0.1535939872
0.03954166667,0.15484038
0.0395625,0.1561669707
0.03958333333,0.1574363112
0.03960416667,0.1585853994
0.039625,0.1598284841
0.03964583333,0.1610563844
0.03966666667,0.162377283
0.0396875,0.1637276113
0.03970833333,0.1650925726
0.03972916667,0.1662276536
0.03975,0.1672817618
0.03977083333,0.1682401299
0.03979166667,0.1692995876
0.0398125,0.1702040881
0.03983333333,0.1712264419
0.03985416667,0.1721617579
0.039875,0.1729730964
0.03989583333,0.1735939682
0.03991666667,0.1741081178
0.0399375,0.1744959354
0.03995833333,0.1749637276
0.03997916667,0.1754094511
0.04,0.1760487556
0.04002083333,0.1765139997
0.04004166667,0.1767137796
0.0400625,0.1767062843
0.04008333333,0.1765954494
0.04010416667,0.1764445305
0.040125,0.1763321608
0.04014583333,0.1761547476
0.04016666667,0.1759631336
0.0401875,0.1757185906
0.04020833333,0.1754943281
0.04022916667,0.1750716269
0.04025,0.1748176068
0.04027083333,0.174573794
0.04029166667,0.1742888391
0.0403125,0.1738559157
0.04033333333,0.1734388173
0.04035416667,0.1728564501
0.040375,0.172333166
0.04039583333,0.1718924642
0.04041666667,0.1713924259
0.0404375,0.1710395366
0.04045833333,0.1706248969
0.04047916667,0.1700167507
0.0405,0.1695428044
0.04052083333,0.1690813154
0.04054166667,0.1686949283
0.0405625,0.168395102
0.04058333333,0.1680324823
0.04060416667,0.1676029563
0.040625,0.167250216
0.04064583333,0.1668114066
0.04066666667,0.1664702147
0.0406875,0.1660879403
0.04070833333,0.165713504
0.04072916667,0.1653274596
0.04075,0.1649750918
0.04077083333,0.1644540429
0.04079166667,0.1641065925
0.0408125,0.1637688577
0.04083333333,0.1634626985
0.04085416667,0.1630888879
0.040875,0.1627516747
0.04089583333,0.1625341326
0.04091666667,0.162324965
0.0409375,0.1621735841
0.04095833333,0.1620263308
0.04097916667,0.1618680209
0.041,0.161776498
0.04102083333,0.1616899073
0.04104166667,0.1616849154
0.0410625,0.1616521627
0.04108333333,0.1616251022
0.04110416667,0.161560744
0.041125,0.1616451889
0.04114583333,0.1616893858
0.04116666667,0.161895752
0.0411875,0.1620492786
0.04120833333,0.1623369604
0.04122916667,0.1625484824
0.04125,0.1628224254
0.04127083333,0.1630015373
0.04129166667,0.1633881629
0.0413125,0.1637089401
0.04133333333,0.1640804708
0.04135416667,0.1643293798
0.041375,0.1646725535
0.04139583333,0.1650066972
0.04141666667,0.1653807759
0.0414375,0.1656356454
0.04145833333,0.1657772362
0.04147916667,0.1659330428
0.0415,0.1660125852
0.04152083333,0.166117534
0.04154166667,0.166236937
0.0415625,0.1662211418
0.04158333333,0.1662748158
0.04160416667,0.1661323607
0.041625,0.1659895629
0.04164583333,0.1658328772
0.04166666667,0.16561234
0.0416875,0.1654067039
0.04170833333,0.1650917828
0.04172916667,0.1647878587
0.04175,0.1643994004
0.04177083333,0.1640126556
0.04179166667,0.1636833102
0.0418125,0.1634258181
0.04183333333,0.1634414047
0.04185416667,0.1633209586
0.041875,0.1633897424
0.04189583333,0.1632723957
0.04191666667,0.1632076204
0.0419375,0.1631456912
0.04195833333,0.1630452424
0.04197916667,0.1630221307
0.042,0.1629294306
0.04202083333,0.162829712
0.04204166667,0.162875697
0.0420625,0.1628377736
0.04208333333,0.1630286276
0.04210416667,0.163129732
0.042125,0.163271293
0.04214583333,0.1634263396
0.04216666667,0.1636944115
0.0421875,0.1639268249
0.04220833333,0.164385125
0.04222916667,0.1646712124
0.04225,0.1649451405
0.04227083333,0.1652597785
0.04229166667,0.1655186862
0.0423125,0.1657450497
0.04233333333,0.1659291238
0.04235416667,0.1659497917
0.042375,0.1659460515
0.04239583333,0.1656970978
0.04241666667,0.1654310822
0.0424375,0.1649882644
0.04245833333,0.164577648
0.04247916667,0.1640494764
0.0425,0.1633344591
0.04252083333,0.1625818461
0.04254166667,0.1616945714
0.0425625,0.1607241631
0.04258333333,0.1597303748
0.04260416667,0.1586867124
0.042625,0.1577189416
0.04264583333,0.1567226201
0.04266666667,0.1557401419
0.0426875,0.1547283083
0.04270833333,0.1537576914
0.04272916667,0.1527216136
0.04275,0.151781708
0.04277083333,0.1508246362
0.04279166667,0.1498616934
0.0428125,0.1489205658
0.04283333333,0.1479637474
0.04285416667,0.1469449252
0.042875,0.1459541172
0.04289583333,0.1449626535
0.04291666667,0.1440392435
0.0429375,0.1431193203
0.04295833333,0.1422199905
0.04297916667,0.1412934363
0.043,0.1405200809
0.04302083333,0.1396239102
0.04304166667,0.1389026344
0.0430625,0.1381651163
0.04308333333,0.1374579519
0.04310416667,0.1367299408
0.043125,0.1361567229
0.04314583333,0.13564156
0.04316666667,0.1351193935
0.0431875,0.134647131
0.04320833333,0.1342057288
0.04322916667,0.1337827593
0.04325,0.1335500777
0.04327083333,0.1333267689
0.04329166667,0.1331464499
0.0433125,0.1330458671
0.04333333333,0.132938087
0.04335416667,0.1327966899
0.043375,0.1326869875
0.04339583333,0.1324484944
0.04341666667,0.1323659867
0.0434375,0.1321713626
0.04345833333,0.1319586933
0.04347916667,0.1316110343
0.0435,0.1311692148
0.04352083333,0.1306598336
0.04354166667,0.1300533563
0.0435625,0.1293261498
0.04358333333,0.1285798848
0.04360416667,0.1277512014
0.043625,0.1269854158
0.04364583333,0.1260579526
0.04366666667,0.1252248883
0.0436875,0.1242702007
0.04370833333,0.1235149726
0.04372916667,0.122666344
0.04375,0.1218906343
0.04377083333,0.1210494488
0.04379166667,0.120284982
0.0438125,0.1195453256
0.04383333333,0.1188337728
0.04385416667,0.1180361509
0.043875,0.1172768548
0.04389583333,0.1164692268
0.04391666667,0.1156500801
0.0439375,0.1147883609
0.04395833333,0.1140033156
0.04397916667,0.1131756306
0.044,0.1124290526
0.04402083333,0.1115522236
0.04404166667,0.1108010784
0.0440625,0.1099229157
0.04408333333,0.1090341657
0.04410416667,0.1081118733
0.044125,0.1072472408
0.04414583333,0.1063105613
0.04416666667,0.1055237949
0.0441875,0.1046351343
0.04420833333,0.1038608253
0.04422916667,0.1028864086
0.04425,0.1019666791
0.04427083333,0.1009460911
0.04429166667,0.09992799163
0.0443125,0.09890846163
0.04433333333,0.09791589528
0.04435416667,0.09685663879
0.044375,0.09587629139
0.04439583333,0.09475143999
0.04441666667,0.0937192142
0.0444375,0.09268218279
0.04445833333,0.09161070734
0.04447916667,0.09053847194
0.0445,0.08950409293
0.04452083333,0.08841584623
0.04454166667,0.08733493835
0.0445625,0.08616273105
0.04458333333,0.08505167067
0.04460416667,0.08378170431
0.044625,0.08259566128
0.04464583333,0.08132982254
0.04466666667,0.08019594848
0.0446875,0.07893229276
0.04470833333,0.07783096284
0.04472916667,0.07659231126
0.04475,0.07539897412
0.04477083333,0.07423374802
0.04479166667,0.07298365235
0.0448125,0.07179731876
0.04483333333,0.0706789121
0.04485416667,0.06941965222
0.044875,0.06825364381
0.04489583333,0.06683721393
0.04491666667,0.06557383388
0.0449375,0.06422623992
0.04495833333,0.06301750988
0.04497916667,0.06186118349
0.045,0.06073006615
0.04502083333,0.0594214201
0.04504166667,0.05805976689
0.0450625,0.0565347895
0.04508333333,0.05499676988
0.04510416667,0.05347471312
0.045125,0.05188208073
0.04514583333,0.05029928684
0.04516666667,0.04882061854
0.0451875,0.04716718942
0.04520833333,0.04558943585
0.04522916667,0.04402316734
0.04525,0.04256768525
0.04527083333,0.04105500132
0.04529166667,0.03960913047
0.0453125,0.03824818879
0.04533333333,0.03687657788
0.04535416667,0.03551443666
0.045375,0.0342239663
0.04539583333,0.0329384096
0.04541666667,0.0317109786
0.0454375,0.03044314124
0.04545833333,0.02928276919
0.04547916667,0.02817743085
0.0455,0.02722838707
0.04552083333,0.02627846412
0.04554166667,0.02546862513
0.0455625,0.02453905717
0.04558333333,0.02380359359
0.04560416667,0.02284468897
0.045625,0.02197104134
0.04564583333,0.02103415504
0.04566666667,0.01996886358
0.0456875,0.01890179701
0.04570833333,0.01775600202
0.04572916667,0.01644314826
0.04575,0.01505319774
0.04577083333,0.01354919747
0.04579166667,0.01197919715
0.0458125,0.01034253184
0.04583333333,0.008730440401
0.04585416667,0.007012465503
0.045875,0.005245945882
0.04589583333,0.00353448838
0.04591666667,0.001843521837
0.0459375,0.0001624956203
0.04595833333,-0.001395178726
0.04597916667,-0.002988727065
0.046,-0.004435304552
0.04602083333,-0.005783057772
0.04604166667,-0.007075884845
0.0460625,-0.008406007662
0.04608333333,-0.009568945505
0.04610416667,-0.01075419504
0.046125,-0.0118112471
0.04614583333,-0.01293351501
0.04616666667,-0.01392216422
0.0461875,-0.01479149237
0.04620833333,-0.01553618163
0.04622916667,-0.01630713232
0.04625,-0.01702129468
0.04627083333,-0.01776811294
0.04629166667,-0.01848508604
0.0463125,-0.01926568523
0.04633333333,-0.02009663358
0.04635416667,-0.02099830657
0.046375,-0.0218757093
0.04639583333,-0.02287198044
0.04641666667,-0.02385219187
0.0464375,-0.02494169027
0.04645833333,-0.02595605515
0.04647916667,-0.02722921595
0.0465,-0.02845250815
0.04652083333,-0.02968003042
0.04654166667,-0.03101400845
0.0465625,-0.03238752112
0.04658333333,-0.03379682079
0.04660416667,-0.03523530811
0.046625,-0.03671254963
0.04664583333,-0.03819664195
0.04666666667,-0.03957255185
0.0466875,-0.0410842523
0.04670833333,-0.04247836024
0.04672916667,-0.04412672669
0.04675,-0.04565081745
0.04677083333,-0.04718588293
0.04679166667,-0.04872763529
0.0468125,-0.05026731268
0.04683333333,-0.05180331692
0.04685416667,-0.05326730385
0.046875,-0.05477232859
0.04689583333,-0.05626219511
0.04691666667,-0.0576814115
0.0469375,-0.0590140745
0.04695833333,-0.06032144651
0.04697916667,-0.06166509166
0.047,-0.06290732324
0.04702083333,-0.06430257112
0.04704166667,-0.06555364281
0.0470625,-0.06692893803
0.04708333333,-0.06818733364
0.04710416667,-0.06901602447
0.047125,-0.06943724304
0.04714583333,-0.06980030984
0.04716666667,-0.069989793
0.0471875,-0.07029339671
0.04720833333,-0.07036032528
0.04722916667,-0.0705370903
0.04725,-0.07065409422
0.04727083333,-0.07108806819
0.04729166667,-0.07172808051
0.0473125,-0.07244505733
0.04733333333,-0.07326454669
0.04735416667,-0.07429939508
0.047375,-0.07540824264
0.04739583333,-0.07672438025
0.04741666667,-0.07811608166
0.0474375,-0.07963937521
0.04745833333,-0.08116948605
0.04747916667,-0.08284272254
0.0475,-0.08439794183
0.04752083333,-0.08603587002
0.04754166667,-0.08761119097
0.0475625,-0.08898320049
0.04758333333,-0.09031994641
0.04760416667,-0.09161853045
0.047625,-0.09284166992
0.04764583333,-0.09409465641
0.04766666667,-0.09526190907
0.0476875,-0.0964275673
0.04770833333,-0.09754491597
0.04772916667,-0.09861405939
0.04775,-0.0996555388
0.04777083333,-0.1005507857
0.04779166667,-0.1012860835
0.0478125,-0.1021238044
0.04783333333,-0.1028125957
0.04785416667,-0.1036013663
0.047875,-0.1041799411
0.04789583333,-0.104732953
0.04791666667,-0.1052188128
0.0479375,-0.1058174968
0.04795833333,-0.1062744632
0.04797916667,-0.1067874283
0.048,-0.1072708815
0.04802083333,-0.1076726317
0.04804166667,-0.1080484167
0.0480625,-0.1082906649
0.04808333333,-0.1084005162
0.04810416667,-0.1084778607
0.048125,-0.1085153073
0.04814583333,-0.1085346416
0.04816666667,-0.1084022596
0.0481875,-0.1083692089
0.04820833333,-0.1083479524
0.04822916667,-0.1082432121
0.04825,-0.1080476046
0.04827083333,-0.1079892516
0.04829166667,-0.1078502983
0.0483125,-0.1077886224
0.04833333333,-0.1076926887
0.04835416667,-0.1075779721
0.048375,-0.1075007617
0.04839583333,-0.1073822826
0.04841666667,-0.1073417589
0.0484375,-0.1073732898
0.04845833333,-0.1073191315
0.04847916667,-0.1073165238
0.0485,-0.1072240174
0.04852083333,-0.107349351
0.04854166667,-0.1072494239
0.0485625,-0.1072360575
0.04858333333,-0.1071407497
0.04860416667,-0.1072067767
0.048625,-0.1072499976
0.04864583333,-0.1073722169
0.04866666667,-0.1074805483
0.0486875,-0.107748501
0.04870833333,-0.1080238298
0.04872916667,-0.1083179861
0.04875,-0.1086151823
0.04877083333,-0.1089809537
0.04879166667,-0.1092910171
0.0488125,-0.1095838323
0.04883333333,-0.1098811403
0.04885416667,-0.1102048531
0.048875,-0.1104790121
0.04889583333,-0.1109049097
0.04891666667,-0.1113475338
0.0489375,-0.1119553596
0.04895833333,-0.1124842614
0.04897916667,-0.1132418886
0.049,-0.1139885038
0.04902083333,-0.1149107963
0.04904166667,-0.1159191579
0.0490625,-0.1169929206
0.04908333333,-0.1180988923
0.04910416667,-0.1193254143
0.049125,-0.1205727682
0.04914583333,-0.1218397394
0.04916666667,-0.1232210249
0.0491875,-0.1243493706
0.04920833333,-0.1255218983
0.04922916667,-0.1267939508
0.04925,-0.1279039979
0.04927083333,-0.1291541755
0.04929166667,-0.1302802563
0.0493125,-0.1315098703
0.04933333333,-0.1327527165
0.04935416667,-0.1340260804
0.049375,-0.135295257
0.04939583333,-0.1365963668
0.04941666667,-0.1379280388
0.0494375,-0.1392131299
0.04945833333,-0.1404815912
0.04947916667,-0.1417695135
0.0495,-0.1429704428
0.04952083333,-0.1442407072
0.04954166667,-0.1454970986
0.0495625,-0.1467513144
0.04958333333,-0.1480713785
0.04960416667,-0.1493843794
0.049625,-0.1506794542
0.04964583333,-0.1521869153
0.04966666667,-0.1535930037
0.0496875,-0.1551865786
0.04970833333,-0.1566464156
0.04972916667,-0.1581348479
0.04975,-0.1596413553
0.04977083333,-0.161170423
0.04979166667,-0.1625966132
0.0498125,-0.1640210748
0.04983333333,-0.1654324234
0.04985416667,-0.1668602973
0.049875,-0.16814138
0.04989583333,-0.1694421321
0.04991666667,-0.1705678999
0.0499375,-0.1715644002
0.04995833333,-0.1724129319
0.04997916667,-0.1730544269
0.05,-0.1738389134
0.05002083333,-0.1743157506
0.05004166667,-0.1746418327
0.0500625,-0.1749537587
0.05008333333,-0.1751719564
0.05010416667,-0.1753989607
0.050125,-0.1754243821
0.05014583333,-0.1753715724
0.05016666667,-0.1751665026
0.0501875,-0.1749602407
0.05020833333,-0.1747185141
0.05022916667,-0.1743865907
0.05025,-0.1739013344
0.05027083333,-0.1734604239
0.05029166667,-0.1728732735
0.0503125,-0.1723439693
0.05033333333,-0.1717293262
0.05035416667,-0.1711114943
0.050375,-0.1705500036
0.05039583333,-0.1699518561
0.05041666667,-0.169276163
0.0504375,-0.1686604768
0.05045833333,-0.1679255366
0.05047916667,-0.1672008783
0.0505,-0.1664467305
0.05052083333,-0.1657488197
0.05054166667,-0.1650565863
0.0505625,-0.1643339843
0.05058333333,-0.1636424214
0.05060416667,-0.1630928814
0.050625,-0.1625430137
0.05064583333,-0.1620490849
0.05066666667,-0.161517188
0.0506875,-0.1610367894
0.05070833333,-0.1605626047
0.05072916667,-0.160162285
0.05075,-0.1597325653
0.05077083333,-0.1594168544
0.05079166667,-0.1590067297
0.0508125,-0.1587301642
0.05083333333,-0.1584949791
0.05085416667,-0.1583675444
0.050875,-0.15823327
0.05089583333,-0.1581662446
0.05091666667,-0.1580754071
0.0509375,-0.1580225825
0.05095833333,-0.1580174118
0.05097916667,-0.1579806209
0.051,-0.1580201685
0.05102083333,-0.1581274569
0.05104166667,-0.1582647413
0.0510625,-0.1584527045
0.05108333333,-0.1586119682
0.05110416667,-0.1588427722
0.051125,-0.1591677666
0.05114583333,-0.1595808566
0.05116666667,-0.1599875987
0.0511875,-0.1604333073
0.05120833333,-0.1609695107
0.05122916667,-0.1615530699
0.05125,-0.162110284
0.05127083333,-0.1626472324
0.05129166667,-0.1631757766
0.0513125,-0.1636843532
0.05133333333,-0.1641999781
0.05135416667,-0.1647201329
0.051375,-0.1651141942
0.05139583333,-0.1655689478
0.05141666667,-0.1658733487
0.0514375,-0.1663202643
0.05145833333,-0.1666127443
0.05147916667,-0.1668721586
0.0515,-0.1670900434
0.05152083333,-0.1672476828
0.05154166667,-0.1674046218
0.0515625,-0.16736871
0.05158333333,-0.1672824025
0.05160416667,-0.1670923829
0.051625,-0.1668203622
0.05164583333,-0.1666186005
0.05166666667,-0.16628021
0.0516875,-0.1659232974
0.05170833333,-0.1655060649
0.05172916667,-0.1651519984
0.05175,-0.1647750437
0.05177083333,-0.1643561423
0.05179166667,-0.1639547497
0.0518125,-0.1635338813
0.05183333333,-0.1632093489
0.05185416667,-0.1629462987
0.051875,-0.1626546979
0.05189583333,-0.1625481397
0.05191666667,-0.1624452919
0.0519375,-0.1623963863
0.05195833333,-0.1624355614
0.05197916667,-0.1624936163
0.052,-0.1625818759
0.05202083333,-0.1628721356
0.05204166667,-0.1631369144
0.0520625,-0.1635678411
0.05208333333,-0.1639980078
0.05210416667,-0.1645724773
0.052125,-0.1651709378
0.05214583333,-0.1657965779
0.05216666667,-0.1664218307
0.0521875,-0.167059496
0.05220833333,-0.1677372605
0.05222916667,-0.1684286892
0.05225,-0.1691010594
0.05227083333,-0.1697704792
0.05229166667,-0.170278132
0.0523125,-0.1708455533
0.05233333333,-0.1713166535
0.05235416667,-0.1717400998
0.052375,-0.1719821095
0.05239583333,-0.1720456779
0.05241666667,-0.1720437706
0.0524375,-0.1719077826
0.05245833333,-0.1715744287
0.05247916667,-0.1710679978
0.0525,-0.1703852564
0.05252083333,-0.1696260571
0.05254166667,-0.1687416136
0.0525625,-0.1676775962
0.05258333333,-0.1665620059
0.05260416667,-0.1653591096
0.052625,-0.1640595496
0.05264583333,-0.1627626121
0.05266666667,-0.1613601297
0.0526875,-0.1599277109
0.05270833333,-0.1584926844
0.05272916667,-0.1570189446
0.05275,-0.1554516554
0.05277083333,-0.1539166868
0.05279166667,-0.1523400247
0.0528125,-0.1508240253
0.05283333333,-0.1494164318
0.05285416667,-0.1480205059
0.052875,-0.1466827691
0.05289583333,-0.1452688128
0.05291666667,-0.1439200789
0.0529375,-0.1425976008
0.05295833333,-0.14132379
0.05297916667,-0.140171662
0.053,-0.1389246136
0.05302083333,-0.1379136294
0.05304166667,-0.1369086802
0.0530625,-0.1359322965
0.05308333333,-0.1350821406
0.05310416667,-0.134290874
0.053125,-0.1336063743
0.05314583333,-0.1330658942
0.05316666667,-0.132623136
0.0531875,-0.1322806776
0.05320833333,-0.1319288611
0.05322916667,-0.1316635311
0.05325,-0.131493926
0.05327083333,-0.1314071566
0.05329166667,-0.1313444227
0.0533125,-0.1314007193
0.05333333333,-0.1313836128
0.05335416667,-0.1315233111
0.053375,-0.1315401793
0.05339583333,-0.1316116154
0.05341666667,-0.1315942556
0.0534375,-0.1315078884
0.05345833333,-0.131254971
0.05347916667,-0.130934611
0.0535,-0.1305287778
0.05352083333,-0.1300361603
0.05354166667,-0.1294393092
0.0535625,-0.1287959069
0.05358333333,-0.1280720979
0.05360416667,-0.1273962706
0.053625,-0.1266338676
0.05364583333,-0.1259136051
0.05366666667,-0.1251083016
0.0536875,-0.1243999451
0.05370833333,-0.1236375198
0.05372916667,-0.1229479387
0.05375,-0.1223044842
0.05377083333,-0.1215610206
0.05379166667,-0.1209060401
0.0538125,-0.1201929078
0.05383333333,-0.1194558814
0.05385416667,-0.118683435
0.053875,-0.1178786382
0.05389583333,-0.1170736849
0.05391666667,-0.1161561236
0.0539375,-0.1152577922
0.05395833333,-0.1143345684
0.05397916667,-0.1135351881
0.054,-0.1127533987
0.05402083333,-0.1119793653
0.05404166667,-0.1111539155
0.0540625,-0.1102417186
0.05408333333,-0.1093970388
0.05410416667,-0.108562246
0.054125,-0.1077232435
0.05414583333,-0.1069599539
0.05416666667,-0.1061843634
0.0541875,-0.1055886298
0.05420833333,-0.1049169898
0.05422916667,-0.1043043584
0.05425,-0.1036063731
0.05427083333,-0.1028739363
0.05429166667,-0.1020654365
0.0543125,-0.101316601
0.05433333333,-0.1004963443
0.05435416667,-0.09960951656
0.054375,-0.09872768819
0.05439583333,-0.09776993841
0.05441666667,-0.09691346437
0.0544375,-0.09598966688
0.05445833333,-0.09498856962
0.05447916667,-0.09392857552
0.0545,-0.09276302159
0.05452083333,-0.09160190821
0.05454166667,-0.09043302387
0.0545625,-0.08924201876
0.05458333333,-0.08814418316
0.05460416667,-0.08702921122
0.054625,-0.08580012619
0.05464583333,-0.08470252156
0.05466666667,-0.08348479122
0.0546875,-0.08228661865
0.05470833333,-0.08107696474
0.05472916667,-0.07998782396
0.05475,-0.07899493724
0.05477083333,-0.07809277624
0.05479166667,-0.0771791935
0.0548125,-0.07631289214
0.05483333333,-0.07545977086
0.05485416667,-0.07448915392
0.054875,-0.07356058061
0.05489583333,-0.07262295485
0.05491666667,-0.07172049582
0.0549375,-0.070934847
0.05495833333,-0.07004197687
0.05497916667,-0.06912641227
0.055,-0.06801259518
0.05502083333,-0.0668496713
0.05504166667,-0.06562649459
0.0550625,-0.06433716416
0.05508333333,-0.06302764267
0.05510416667,-0.06168881431
0.055125,-0.06017396599
0.05514583333,-0.05872204155
0.05516666667,-0.05731486902
0.0551875,-0.05583592504
0.05520833333,-0.05431238562
0.05522916667,-0.05280894786
0.05525,-0.05136517435
0.05527083333,-0.04974457994
0.05529166667,-0.04792967439
0.0553125,-0.04612492025
0.05533333333,-0.04435581341
0.05535416667,-0.04270414636
0.055375,-0.04121173918
0.05539583333,-0.03972205892
0.05541666667,-0.03831745312
0.0554375,-0.03700213134
0.05545833333,-0.03561939299
0.05547916667,-0.03426471353
0.0555,-0.03293932974
0.05552083333,-0.03165423498
0.05554166667,-0.0304960236
0.0555625,-0.02925778739
0.05558333333,-0.02815010771
0.05560416667,-0.02701239102
0.055625,-0.02585918456
0.05564583333,-0.02469482459
0.05566666667,-0.02350151539
0.0556875,-0.02220235765
0.05570833333,-0.02082180046
0.05572916667,-0.01929611899
0.05575,-0.01766279899
0.05577083333,-0.01599168964
0.05579166667,-0.01425370481
0.0558125,-0.01253899559
0.05583333333,-0.01069752406
0.05585416667,-0.008874250576
0.055875,-0.007134552579
0.05589583333,-0.005382806063
0.05591666667,-0.003629374318
0.0559375,-0.001881260658
0.05595833333,-0.0001607030863
0.05597916667,0.001417563646
0.056,0.002963480772
0.05602083333,0.004437310621
0.05604166667,0.005927626509
0.0560625,0.00746420864
0.05608333333,0.008799269795
0.05610416667,0.01006781124
0.056125,0.01130068116
0.05614583333,0.01243305299
0.05616666667,0.01362201199
0.0561875,0.01465849206
0.05620833333,0.01576241851
0.05622916667,0.01684166677
0.05625,0.0176821202
0.05627083333,0.01858347654
0.05629166667,0.01958112977
0.0563125,0.02052821591
0.05633333333,0.02154006995
0.05635416667,0.02244158834
0.056375,0.02346645296
0.05639583333,0.02449122071
0.05641666667,0.02565632947
0.0564375,0.02681512013
0.05645833333,0.02788334899
0.05647916667,0.02903743275
0.0565,0.03030103631
0.05652083333,0.03151447698
0.05654166667,0.03288862482
0.0565625,0.0343644917
0.05658333333,0.03582725674
0.05660416667,0.03726998344
0.056625,0.03866779804
0.05664583333,0.04023592174
0.05666666667,0.04198399931
0.0566875,0.04395946488
0.05670833333,0.04613278434
0.05672916667,0.04820755497
0.05675,0.05046696588
0.05677083333,0.05322691798
0.05679166667,0.05540661514
0.0568125,0.05766773224
0.05683333333,0.06023127958
0.05685416667,0.06270039082
0.056875,0.06570610404
0.05689583333,0.06843587011
0.05691666667,0.07109548897
0.0569375,0.07354415953
0.05695833333,0.07593712956
0.05697916667,0.07939223945
0.057,0.08307044953
0.05702083333,0.08628644794
0.05704166667,0.08971009403
0.0570625,0.09337697178
0.05708333333,0.09662551433
0.05710416667,0.09968131036
0.057125,0.102579467
0.05714583333,0.105961889
0.05716666667,0.1095221564
0.0571875,0.1128069982
0.05720833333,0.1156781986
0.05722916667,0.1180715561
0.05725,0.1202833429
0.05727083333,0.1221434772
0.05729166667,0.1240523383
0.0573125,0.1265803576
0.05733333333,0.1288895607
0.05735416667,0.1312179267
0.057375,0.1342648119
0.05739583333,0.1374897361
0.05741666667,0.1406446248
0.0574375,0.1441113055
0.05745833333,0.1481130421
0.05747916667,0.1525024176
0.0575,0.1569769233
0.05752083333,0.1610949785
0.05754166667,0.1645729095
0.0575625,0.1669848859
0.05758333333,0.1688876599
0.05760416667,0.1704325676
0.057625,0.1717258692
0.05764583333,0.1727137864
0.05766666667,0.1738940179
0.0576875,0.1749224812
0.05770833333,0.1764367521
0.05772916667,0.1783570498
0.05775,0.1802431047
0.05777083333,0.1820177734
0.05779166667,0.1830447018
0.0578125,0.1839201003
0.05783333333,0.185727492
0.05785416667,0.1874319464
0.057875,0.1885599643
0.05789583333,0.1895246357
0.05791666667,0.1899458468
0.0579375,0.1903717667
0.05795833333,0.1903817207
0.05797916667,0.190729171
0.058,0.1915379614
0.05802083333,0.1928661168
0.05804166667,0.1940510273
0.0580625,0.1942925304
0.05808333333,0.1947677732
0.05810416667,0.1958200037
0.058125,0.1963662356
0.05814583333,0.1965762675
0.05816666667,0.1964920312
0.0581875,0.1960384101
0.05820833333,0.1952877641
0.05822916667,0.1946240813
0.05825,0.1941343099
0.05827083333,0.19366391
0.05829166667,0.1934935153
0.0583125,0.1932376176
0.05833333333,0.1928128153
0.05835416667,0.1921602488
0.058375,0.1913643777
0.05839583333,0.1909168512
0.05841666667,0.1908121258
0.0584375,0.1904410124
0.05845833333,0.1898733974
0.05847916667,0.1897340715
0.0585,0.1896495521
0.05852083333,0.1892091036
0.05854166667,0.1887256801
0.0585625,0.1879624128
0.05858333333,0.1873469353
0.05860416667,0.1868816018
0.058625,0.1867603064
0.05864583333,0.1869266182
0.05866666667,0.1866559982
0.0586875,0.1865326166
0.05870833333,0.1874055564
0.05872916667,0.1884959787
0.05875,0.1901868433
0.05877083333,0.1914514452
0.05879166667,0.1919684112
0.0588125,0.192588523
0.05883333333,0.1931632906
0.05885416667,0.1938778907
0.058875,0.1945717484
0.05889583333,0.1945384741
0.05891666667,0.1945463717
0.0589375,0.1950553209
0.05895833333,0.1955890357
0.05897916667,0.1956517249
0.059,0.1956391037
0.05902083333,0.1957105845
0.05904166667,0.1956917048
0.0590625,0.1958678514
0.05908333333,0.1962673366
0.05910416667,0.1966419816
0.059125,0.1969537884
0.05914583333,0.1972168237
0.05916666667,0.1976442635
0.0591875,0.1979944408
0.05920833333,0.1983811855
0.05922916667,0.1989690661
0.05925,0.1995273083
0.05927083333,0.2000628561
0.05929166667,0.2005698234
0.0593125,0.201050356
0.05933333333,0.2014105767
0.05935416667,0.2018157989
0.059375,0.2022582293
0.05939583333,0.2027278244
0.05941666667,0.203102529
0.0594375,0.2035807371
0.05945833333,0.2039969712
0.05947916667,0.2043186724
0.0595,0.2046609968
0.05952083333,0.2049477845
0.05954166667,0.2052974999
0.0595625,0.2056159526
0.05958333333,0.2059866041
0.05960416667,0.206452176
0.059625,0.2069946527
0.05964583333,0.2075733542
0.05966666667,0.2082176208
0.0596875,0.2087987065
0.05970833333,0.2093690634
0.05972916667,0.2100367993
0.05975,0.2105685323
0.05977083333,0.2110506445
0.05979166667,0.2114844173
0.0598125,0.2120824158
0.05983333333,0.212651059
0.05985416667,0.2130665034
0.059875,0.2133333981
0.05989583333,0.2135914415
0.05991666667,0.213696152
0.0599375,0.2136961967
0.05995833333,0.2136321217
0.05997916667,0.2133728862
0.06,0.2132714242
0.06002083333,0.2128394693
0.06004166667,0.2123515308
0.0600625,0.2118068933
0.06008333333,0.2111623287
0.06010416667,0.2104728669
0.060125,0.2097189873
0.06014583333,0.2089272887
0.06016666667,0.2080293149
0.0601875,0.2072040886
0.06020833333,0.2064804733
0.06022916667,0.205648005
0.06025,0.2048392147
0.06027083333,0.2039043456
0.06029166667,0.2030248344
0.0603125,0.2021205276
0.06033333333,0.2011014223
0.06035416667,0.2001648247
0.060375,0.1992305368
0.06039583333,0.1981810629
0.06041666667,0.1972486526
0.0604375,0.1963055432
0.06045833333,0.1953427792
0.06047916667,0.1944524348
0.0605,0.1935050488
0.06052083333,0.1925550699
0.06054166667,0.1916071177
0.0605625,0.1906790435
0.06058333333,0.1897744834
0.06060416667,0.1889135838
0.060625,0.1880513728
0.06064583333,0.1871465743
0.06066666667,0.1861495674
0.0606875,0.185235709
0.06070833333,0.1843348444
0.06072916667,0.1833655536
0.06075,0.1824184954
0.06077083333,0.1814914793
0.06079166667,0.1805513054
0.0608125,0.179645732
0.06083333333,0.1787361056
0.06085416667,0.1779081523
0.060875,0.1771646142
0.06089583333,0.1764388829
0.06091666667,0.1758533418
0.0609375,0.1751776636
0.06095833333,0.1746301055
0.06097916667,0.1742071658
0.061,0.1738915145
0.06102083333,0.1736043394
0.06104166667,0.1733985394
0.0610625,0.1732490063
0.06108333333,0.1731755137
0.06110416667,0.1732419431
0.061125,0.173345983
0.06114583333,0.1735721081
0.06116666667,0.1737455875
0.0611875,0.1740094572
0.06120833333,0.1742219031
0.06122916667,0.1744422913
0.06125,0.1747132242
0.06127083333,0.174924314
0.06129166667,0.1751645654
0.0613125,0.1754322797
0.06133333333,0.1755539626
0.06135416667,0.1756824702
0.061375,0.1758676469
0.06139583333,0.1758558452
0.06141666667,0.1759348065
0.0614375,0.175867185
0.06145833333,0.1756831557
0.06147916667,0.1755183786
0.0615,0.1752582937
0.06152083333,0.1749784201
0.06154166667,0.1746466905
0.0615625,0.1742387563
0.06158333333,0.1737545282
0.06160416667,0.1732546091
0.061625,0.1726790518
0.06164583333,0.1719914973
0.06166666667,0.1712704897
0.0616875,0.1706076562
0.06170833333,0.1698626727
0.06172916667,0.1691204309
0.06175,0.168416962
0.06177083333,0.1676827073
0.06179166667,0.1670945138
0.0618125,0.1665973812
0.06183333333,0.1660585999
0.06185416667,0.1657188237
0.061875,0.1653600633
0.06189583333,0.1650016457
0.06191666667,0.1648539454
0.0619375,0.1646383256
0.06195833333,0.1645750403
0.06197916667,0.1645541936
0.062,0.1645029932
0.06202083333,0.1645139456
0.06204166667,0.1645843834
0.0620625,0.1647536606
0.06208333333,0.1650758833
0.06210416667,0.1654268652
0.062125,0.1658465713
0.06214583333,0.1663439125
0.06216666667,0.1667961776
0.0621875,0.1672199667
0.06220833333,0.1676632464
0.06222916667,0.1681055874
0.06225,0.1685060114
0.06227083333,0.1689322442
0.06229166667,0.1692040414
0.0623125,0.1693912745
0.06233333333,0.169550702
0.06235416667,0.1695084125
0.062375,0.1693604738
0.06239583333,0.1690495312
0.06241666667,0.16848059
0.0624375,0.1677808762
0.06245833333,0.1668818146
0.06247916667,0.1660488248
0.0625,0.1651863456
0.06252083333,0.1642246842
0.06254166667,0.163190335
0.0625625,0.1620620787
0.06258333333,0.1608676165
0.06260416667,0.159544304
0.062625,0.1581446081
0.06264583333,0.156705752
0.06266666667,0.1552762091
0.0626875,0.1537833661
0.06270833333,0.1522736549
0.06272916667,0.1507407576
0.06275,0.1493128538
0.06277083333,0.1479506046
0.06279166667,0.1466668397
0.0628125,0.1454015672
0.06283333333,0.1440315843
0.06285416667,0.1428093016
0.062875,0.1415534019
0.06289583333,0.1401745677
0.06291666667,0.1389125288
0.0629375,0.1376934946
0.06295833333,0.1365309209
0.06297916667,0.1354301274
0.063,0.1343930364
0.06302083333,0.1334045678
0.06304166667,0.1323999166
0.0630625,0.131571725
0.06308333333,0.1307994872
0.06310416667,0.1300764531
0.063125,0.1295019686
0.06314583333,0.128856197
0.06316666667,0.1283496767
0.0631875,0.1280444711
0.06320833333,0.1277365088
0.06322916667,0.1274938285
0.06325,0.1273134947
0.06327083333,0.1271443367
0.06329166667,0.126919806
0.0633125,0.1267931163
0.06333333333,0.1266803294
0.06335416667,0.1265433878
0.063375,0.1263883263
0.06339583333,0.1262484491
0.06341666667,0.1261637509
0.0634375,0.1259662807
0.06345833333,0.1257151812
0.06347916667,0.1254641265
0.0635,0.1251626313
0.06352083333,0.1247780919
0.06354166667,0.1242642775
0.0635625,0.1236066222
0.06358333333,0.1229425296
0.06360416667,0.1222475991
0.063625,0.1214414835
0.06364583333,0.1204477176
0.06366666667,0.1194653958
0.0636875,0.1184093356
0.06370833333,0.1172863469
0.06372916667,0.1162440479
0.06375,0.1151625365
0.06377083333,0.1142301559
0.06379166667,0.1133101881
0.0638125,0.1124111116
0.06383333333,0.1114649922
0.06385416667,0.1105385795
0.063875,0.109585233
0.06389583333,0.1085987836
0.06391666667,0.1075904518
0.0639375,0.106468074
0.06395833333,0.1052663624
0.06397916667,0.1042122245
0.064,0.1031351835
0.06402083333,0.1019384414
0.06404166667,0.1007232741
0.0640625,0.09946910292
0.06408333333,0.09822910279
0.06410416667,0.09702011943
0.064125,0.09590802342
0.06414583333,0.0947669223
0.06416666667,0.09367268533
0.0641875,0.09270293266
0.06420833333,0.09174160659
0.06422916667,0.09070859104
0.06425,0.08959174156
0.06427083333,0.08843535185
0.06429166667,0.08715169132
0.0643125,0.08602009714
0.06433333333,0.0849699825
0.06435416667,0.08388638496
0.064375,0.08276820928
0.06439583333,0.08163520694
0.06441666667,0.08049114048
0.0644375,0.07940530777
0.06445833333,0.07821245492
0.06447916667,0.07700121403
0.0645,0.07589735836
0.06452083333,0.07476560026
0.06454166667,0.07369760424
0.0645625,0.07257319242
0.06458333333,0.07143567502
0.06460416667,0.07025326043
0.064625,0.06907900423
0.06464583333,0.06786625087
0.06466666667,0.06648007035
0.0646875,0.06513049453
0.06470833333,0.06387642771
0.06472916667,0.06265456975
0.06475,0.06150728837
0.06477083333,0.06033117324
0.06479166667,0.05914538726
0.0648125,0.05805145204
0.06483333333,0.05683422089
0.06485416667,0.05576167628
0.064875,0.05462005362
0.06489583333,0.0533904843
0.06491666667,0.05212620646
0.0649375,0.05083144829
0.06495833333,0.04939403012
0.06497916667,0.04787435383
0.065,0.04637918994
0.06502083333,0.04481653124
0.06504166667,0.04324101657
0.0650625,0.04162748158
0.06508333333,0.04005306587
0.06510416667,0.03840243816
0.065125,0.03685662523
0.06514583333,0.03528716788
0.06516666667,0.03361597657
0.0651875,0.03205584362
0.06520833333,0.03038870171
0.06522916667,0.02894018963
0.06525,0.0274038557
0.06527083333,0.02582533471
0.06529166667,0.02444221452
0.0653125,0.02306176908
0.06533333333,0.02181171626
0.06535416667,0.02050698362
0.065375,0.01928471215
0.06539583333,0.01814124361
0.06541666667,0.01702281833
0.0654375,0.0160369724
0.06545833333,0.01509075053
0.06547916667,0.01419429481
0.0655,0.01335159782
0.06552083333,0.01249279734
0.06554166667,0.01166580617
0.0655625,0.01088922285
0.06558333333,0.01014363114
0.06560416667,0.009362787008
0.065625,0.00846686773
0.06564583333,0.007429325953
0.06566666667,0.006326988339
0.0656875,0.005078750197
0.06570833333,0.003786581801
0.06572916667,0.002360916696
0.06575,0.0008741775528
0.06577083333,-0.0006368032191
0.06579166667,-0.00232641818
0.0658125,-0.00403650105
0.06583333333,-0.005798477214
0.06585416667,-0.007507893257
0.065875,-0.009273434058
0.06589583333,-0.01103080157
0.06591666667,-0.01280422695
0.0659375,-0.01451185718
0.06595833333,-0.01601357386
0.06597916667,-0.01753011532
0.066,-0.01891361549
0.06602083333,-0.02027147263
0.06604166667,-0.02155713737
0.0660625,-0.02271924727
0.06608333333,-0.02380796336
0.06610416667,-0.02487050556
0.066125,-0.02583820745
0.06614583333,-0.02686768211
0.06616666667,-0.02787038498
0.0661875,-0.02874496765
0.06620833333,-0.0295447316
0.06622916667,-0.03027400374
0.06625,-0.03099201992
0.06627083333,-0.03167799115
0.06629166667,-0.03249126673
0.0663125,-0.0333721377
0.06633333333,-0.0341087617
0.06635416667,-0.03494850174
0.066375,-0.03586610034
0.06639583333,-0.03671297058
0.06641666667,-0.03754403442
0.0664375,-0.03841251135
0.06645833333,-0.03938316926
0.06647916667,-0.04042933136
0.0665,-0.04152977094
0.06652083333,-0.04264358431
0.06654166667,-0.04376458004
0.0665625,-0.04499470815
0.06658333333,-0.04613165557
0.06660416667,-0.04731427878
0.066625,-0.04853302613
0.06664583333,-0.04989177734
0.06666666667,-0.05128222704
0.0666875,-0.05274979398
0.06670833333,-0.05422904342
0.06672916667,-0.05569947138
0.06675,-0.05728439614
0.06677083333,-0.05870544165
0.06679166667,-0.0601000376
0.0668125,-0.06153584644
0.06683333333,-0.06287690997
0.06685416667,-0.06427740306
0.066875,-0.06572020799
0.06689583333,-0.06718072295
0.06691666667,-0.06863228977
0.0669375,-0.07009358704
0.06695833333,-0.07155206054
0.06697916667,-0.07302270085
0.067,-0.0744637996
0.06702083333,-0.07592458278
0.06704166667,-0.07734609395
0.0670625,-0.07875184715
0.06708333333,-0.08015444875
0.06710416667,-0.08157840371
0.067125,-0.08305041492
0.06714583333,-0.08443357795
0.06716666667,-0.08594240248
0.0671875,-0.08742251247
0.06720833333,-0.08887042105
0.06722916667,-0.09038016945
0.06725,-0.09180062264
0.06727083333,-0.0932815671
0.06729166667,-0.09471418709
0.0673125,-0.09609000385
0.06733333333,-0.09755840898
0.06735416667,-0.09885967523
0.067375,-0.1000843048
0.06739583333,-0.1013002321
0.06741666667,-0.1025660783
0.0674375,-0.1039545983
0.06745833333,-0.1053079739
0.06747916667,-0.1067265943
0.0675,-0.1080076173
0.06752083333,-0.1092282757
0.06754166667,-0.1104966775
0.0675625,-0.1115977392
0.06758333333,-0.1127312705
0.06760416667,-0.1138319373
0.067625,-0.114801608
0.06764583333,-0.1157687157
0.06766666667,-0.1167187393
0.0676875,-0.1176844016
0.06770833333,-0.118538931
0.06772916667,-0.1193691418
0.06775,-0.1202874035
0.06777083333,-0.1210348904
0.06779166667,-0.1217159629
0.0678125,-0.1223569065
0.06783333333,-0.1228903309
0.06785416667,-0.1233461946
0.067875,-0.1237872913
0.06789583333,-0.1240855381
0.06791666667,-0.1243754327
0.0679375,-0.1246694699
0.06795833333,-0.1248902529
0.06797916667,-0.1251910329
0.068,-0.1253985614
0.06802083333,-0.1255611032
0.06804166667,-0.1257247776
0.0680625,-0.1258636117
0.06808333333,-0.1260202825
0.06810416667,-0.1261605769
0.068125,-0.1263540685
0.06814583333,-0.1264918149
0.06816666667,-0.1265924573
0.0681875,-0.1268327236
0.06820833333,-0.1271539629
0.06822916667,-0.1273203194
0.06825,-0.1275451779
0.06827083333,-0.1277531385
0.06829166667,-0.1278365701
0.0683125,-0.1279311627
0.06833333333,-0.12801826
0.06835416667,-0.1280214638
0.068375,-0.1279320419
0.06839583333,-0.1277821213
0.06841666667,-0.1276306957
0.0684375,-0.1273996383
0.06845833333,-0.1272018701
0.06847916667,-0.126958102
0.0685,-0.1264350563
0.06852083333,-0.12590684
0.06854166667,-0.1252178699
0.0685625,-0.1243581921
0.06858333333,-0.1235701367
0.06860416667,-0.1228330433
0.068625,-0.1223741174
0.06864583333,-0.1218633279
0.06866666667,-0.1212745309
0.0686875,-0.1205391735
0.06870833333,-0.1192069277
0.06872916667,-0.1180094779
0.06875,-0.1171062067
0.06877083333,-0.1163933948
0.06879166667,-0.115880765
0.0688125,-0.1155026406
0.06883333333,-0.1153511256
0.06885416667,-0.115230225
0.068875,-0.1152107492
0.06889583333,-0.1152844504
0.06891666667,-0.115496546
0.0689375,-0.1158384159
0.06895833333,-0.1162156463
0.06897916667,-0.1167619526
0.069,-0.1174121574
0.06902083333,-0.118222937
0.06904166667,-0.119158037
0.0690625,-0.1202191412
0.06908333333,-0.1213634014
0.06910416667,-0.1226427332
0.069125,-0.1240460351
0.06914583333,-0.1256287545
0.06916666667,-0.1271936297
0.0691875,-0.1288393587
0.06920833333,-0.1305311024
0.06922916667,-0.1321341842
0.06925,-0.1337453276
0.06927083333,-0.1353026927
0.06929166667,-0.1368391514
0.0693125,-0.1384454072
0.06933333333,-0.1400644928
0.06935416667,-0.1416382343
0.069375,-0.1432611644
0.06939583333,-0.1448809654
0.06941666667,-0.1464586556
0.0694375,-0.1479673088
0.06945833333,-0.1493947357
0.06947916667,-0.1508534551
0.0695,-0.1522709131
0.06952083333,-0.1536903828
0.06954166667,-0.1551024616
0.0695625,-0.1564646959
0.06958333333,-0.1578985602
0.06960416667,-0.1593427211
0.069625,-0.1608942449
0.06964583333,-0.1624445319
0.06966666667,-0.1640167683
0.0696875,-0.1656655371
0.06970833333,-0.1673219353
0.06972916667,-0.1690523624
0.06975,-0.1707033515
0.06977083333,-0.172213614
0.06979166667,-0.1738458872
0.0698125,-0.1753179282
0.06983333333,-0.1767365783
0.06985416667,-0.1781667024
0.069875,-0.1793499887
0.06989583333,-0.1805959046
0.06991666667,-0.1816232353
0.0699375,-0.1825016439
0.06995833333,-0.1834487915
0.06997916667,-0.1840725541
0.07,-0.184756577
0.07002083333,-0.1851841062
0.07004166667,-0.1853803098
0.0700625,-0.1854596436
0.07008333333,-0.1853374988
0.07010416667,-0.1851627678
0.070125,-0.1848530322
0.07014583333,-0.1844596863
0.07016666667,-0.1840293556
0.0701875,-0.1834973395
0.07020833333,-0.1829370707
0.07022916667,-0.1822924614
0.07025,-0.1816759706
0.07027083333,-0.1809000373
0.07029166667,-0.1801971346
0.0703125,-0.1795111448
0.07033333333,-0.1786746234
0.07035416667,-0.1779364049
0.070375,-0.1771543026
0.07039583333,-0.1763476431
0.07041666667,-0.1755379736
0.0704375,-0.1746781021
0.07045833333,-0.173820287
0.07047916667,-0.1728997678
0.0705,-0.1720211208
0.07052083333,-0.1711902469
0.07054166667,-0.1702929288
0.0705625,-0.1694140285
0.07058333333,-0.1685954332
0.07060416667,-0.1677757204
0.070625,-0.1669447422
0.07064583333,-0.1661666632
0.07066666667,-0.1654542834
0.0706875,-0.1648088694
0.07070833333,-0.1641509235
0.07072916667,-0.1635087878
0.07075,-0.1629441977
0.07077083333,-0.162459895
0.07079166667,-0.1620491743
0.0708125,-0.161586836
0.07083333333,-0.1611868143
0.07085416667,-0.1608862281
0.070875,-0.1606930345
0.07089583333,-0.1605629474
0.07091666667,-0.1604882926
0.0709375,-0.1605080366
0.07095833333,-0.1605836749
0.07097916667,-0.1607403457
0.071,-0.1609128714
0.07102083333,-0.1611087322
0.07104166667,-0.161318928
0.0710625,-0.1614831388
0.07108333333,-0.1617375314
0.07110416667,-0.1621125191
0.071125,-0.1625328362
0.07114583333,-0.1629819721
0.07116666667,-0.163409695
0.0711875,-0.1639163494
0.07120833333,-0.1644079834
0.07122916667,-0.1648810059
0.07125,-0.1654263735
0.07127083333,-0.1658770144
0.07129166667,-0.1663939059
0.0713125,-0.1668864638
0.07133333333,-0.1672057509
0.07135416667,-0.1675134897
0.071375,-0.1676992029
0.07139583333,-0.1679251492
0.07141666667,-0.1679935157
0.0714375,-0.1680335402
0.07145833333,-0.1681476533
0.07147916667,-0.1682050824
0.0715,-0.1682760566
0.07152083333,-0.1682558805
0.07154166667,-0.1682428122
0.0715625,-0.1682003886
0.07158333333,-0.1680338383
0.07160416667,-0.167847231
0.071625,-0.1675041914
0.07164583333,-0.167125091
0.07166666667,-0.1667011827
0.0716875,-0.1661958098
0.07170833333,-0.1657248586
0.07172916667,-0.1652245075
0.07175,-0.1646631658
0.07177083333,-0.1640100181
0.07179166667,-0.1633832604
0.0718125,-0.1628317833
0.07183333333,-0.1623232216
0.07185416667,-0.1619511396
0.071875,-0.1616320461
0.07189583333,-0.1613117158
0.07191666667,-0.1611306816
0.0719375,-0.1609987468
0.07195833333,-0.1609307081
0.07197916667,-0.1609003991
0.072,-0.1610472053
0.07202083333,-0.1613105237
0.07204166667,-0.1616646051
0.0720625,-0.1621368974
0.07208333333,-0.1626257151
0.07210416667,-0.1632100195
0.072125,-0.1638776362
0.07214583333,-0.1645689309
0.07216666667,-0.1653414667
0.0721875,-0.1661382616
0.07220833333,-0.1669564545
0.07222916667,-0.1677935869
0.07225,-0.1686817557
0.07227083333,-0.1694482267
0.07229166667,-0.1700658798
0.0723125,-0.1706565619
0.07233333333,-0.1711536497
0.07235416667,-0.1715292484
0.072375,-0.1717451811
0.07239583333,-0.1717931926
0.07241666667,-0.17168051
0.0724375,-0.1713781804
0.07245833333,-0.1708768308
0.07247916667,-0.1702083796
0.0725,-0.1694313586
0.07252083333,-0.16854994
0.07254166667,-0.1675632298
0.0725625,-0.1664768606
0.07258333333,-0.1653112322
0.07260416667,-0.1640933901
0.072625,-0.1628762335
0.07264583333,-0.1616294235
0.07266666667,-0.1603188664
0.0726875,-0.1590020955
0.07270833333,-0.1577083319
0.07272916667,-0.1564013511
0.07275,-0.1550848335
0.07277083333,-0.1538074017
0.07279166667,-0.1525083929
0.0728125,-0.1511665732
0.07283333333,-0.1498926282
0.07285416667,-0.148595944
0.072875,-0.1473427266
0.07289583333,-0.1461187154
0.07291666667,-0.1449198872
0.0729375,-0.1437677294
0.07295833333,-0.1426101327
0.07297916667,-0.1415587366
0.073,-0.1405391544
0.07302083333,-0.1395490468
0.07304166667,-0.1386664659
0.0730625,-0.1378825754
0.07308333333,-0.1371902376
0.07310416667,-0.1365066618
0.073125,-0.1359463781
0.07314583333,-0.1354541928
0.07316666667,-0.1351075172
0.0731875,-0.1348752826
0.07320833333,-0.1346535981
0.07322916667,-0.1345895678
0.07325,-0.1345785111
0.07327083333,-0.1346010417
0.07329166667,-0.1347012073
0.0733125,-0.1348564178
0.07333333333,-0.1349950135
0.07335416667,-0.1351367384
0.073375,-0.1353539377
0.07339583333,-0.1355381012
0.07341666667,-0.1356795281
0.0734375,-0.1357131302
0.07345833333,-0.1356450617
0.07347916667,-0.1354483962
0.0735,-0.1351810843
0.07352083333,-0.1348529756
0.07354166667,-0.1343087554
0.0735625,-0.1337895691
0.07358333333,-0.1332135648
0.07360416667,-0.13258636
0.073625,-0.1319974661
0.07364583333,-0.1312675774
0.07366666667,-0.1304994226
0.0736875,-0.1297737956
0.07370833333,-0.1290643215
0.07372916667,-0.1283361316
0.07375,-0.1276030242
0.07377083333,-0.126958251
0.07379166667,-0.1263917983
0.0738125,-0.1258897483
0.07383333333,-0.1253413409
0.07385416667,-0.1247583777
0.073875,-0.124107942
0.07389583333,-0.123388648
0.07391666667,-0.1226406395
0.0739375,-0.1218418255
0.07395833333,-0.1210212111
0.07397916667,-0.1201800853
0.074,-0.119287394
0.07402083333,-0.1183590889
0.07404166667,-0.1173694879
0.0740625,-0.1163925678
0.07408333333,-0.1154012829
0.07410416667,-0.1144697741
0.074125,-0.1136029214
0.07414583333,-0.1126809642
0.07416666667,-0.1118159145
0.0741875,-0.1109821349
0.07420833333,-0.1101533845
0.07422916667,-0.1093424112
0.07425,-0.1085341871
0.07427083333,-0.1077210903
0.07429166667,-0.106867224
0.0743125,-0.1059316322
0.07433333333,-0.1049660146
0.07435416667,-0.10396339
0.074375,-0.1029804423
0.07439583333,-0.1019804105
0.07441666667,-0.1008926183
0.0744375,-0.09985467046
0.07445833333,-0.09871364385
0.07447916667,-0.09757743776
0.0745,-0.09647496045
0.07452083333,-0.09528468549
0.07454166667,-0.09419187158
0.0745625,-0.09303952754
0.07458333333,-0.09189262241
0.07460416667,-0.09077656269
0.074625,-0.08955492079
0.07464583333,-0.08837743104
0.07466666667,-0.08722948283
0.0746875,-0.08606907725
0.07470833333,-0.08491633087
0.07472916667,-0.08373598009
0.07475,-0.08263880014
0.07477083333,-0.08151305467
0.07479166667,-0.08042804897
0.0748125,-0.07942163199
0.07483333333,-0.07848005742
0.07485416667,-0.07762160152
0.074875,-0.0767056942
0.07489583333,-0.07582136989
0.07491666667,-0.07492354512
0.0749375,-0.07391552627
0.07495833333,-0.07290942222
0.07497916667,-0.07189922035
0.075,-0.07081882656
0.07502083333,-0.06970199943
0.07504166667,-0.06852300465
0.0750625,-0.06724532694
0.07508333333,-0.06594190001
0.07510416667,-0.0646250248
0.075125,-0.0633122623
0.07514583333,-0.06200286746
0.07516666667,-0.0607246384
0.0751875,-0.05945950374
0.07520833333,-0.05817109719
0.07522916667,-0.05685659498
0.07525,-0.05555871874
0.07527083333,-0.05434807017
0.07529166667,-0.05303632468
0.0753125,-0.05165723711
0.07533333333,-0.05044065416
0.07535416667,-0.04925225675
0.075375,-0.04793942347
0.07539583333,-0.04675938189
0.07541666667,-0.04557237029
0.0754375,-0.04443736002
0.07545833333,-0.04339297116
0.07547916667,-0.04237961397
0.0755,-0.04152742028
0.07552083333,-0.04059564695
0.07554166667,-0.03966143727
0.0755625,-0.03871522471
0.07558333333,-0.03769221902
0.07560416667,-0.0367048271
0.075625,-0.03562516719
0.07564583333,-0.034534242
0.07566666667,-0.03332677856
0.0756875,-0.03206504136
0.07570833333,-0.03071202338
0.07572916667,-0.02919283137
0.07575,-0.02763783187
0.07577083333,-0.02597042918
0.07579166667,-0.02419058233
0.0758125,-0.02238050848
0.07583333333,-0.02059879899
0.07585416667,-0.01870976761
0.075875,-0.01678117365
0.07589583333,-0.01492761075
0.07591666667,-0.01299324073
0.0759375,-0.0110863233
0.07595833333,-0.009329225868
0.07597916667,-0.007593018934
0.076,-0.0059559457
0.07602083333,-0.004370152019
0.07604166667,-0.002899936633
0.0760625,-0.00148546882
0.07608333333,-0.0001306601334
0.07610416667,0.00110134203
0.076125,0.002302927664
0.07614583333,0.003409341676
0.07616666667,0.004471252672
0.0761875,0.005588550121
0.07620833333,0.006588937249
0.07622916667,0.007714664098
0.07625,0.008783956058
0.07627083333,0.009726105258
0.07629166667,0.01088100299
0.0763125,0.011933662
0.07633333333,0.01304705162
0.07635416667,0.01422188338
0.076375,0.01537245512
0.07639583333,0.01660301909
0.07641666667,0.01784283854
0.0764375,0.01914159581
0.07645833333,0.02042564005
0.07647916667,0.02172999829
0.0765,0.02304603346
0.07652083333,0.02431879751
0.07654166667,0.02570728399
0.0765625,0.02716990001
0.07658333333,0.02867923677
0.07660416667,0.03026528098
0.076625,0.03186669946
0.07664583333,0.03349816427
0.07666666667,0.03512720019
0.0766875,0.03677785024
0.07670833333,0.03844296187
0.07672916667,0.04008693248
0.07675,0.04178478941
0.07677083333,0.04342066124
0.07679166667,0.04504207522
0.0768125,0.04661982507
0.07683333333,0.04819945619
0.07685416667,0.04987513274
0.076875,0.05150384083
0.07689583333,0.05312987417
0.07691666667,0.05483689532
0.0769375,0.05657149106
0.07695833333,0.05845149606
0.07697916667,0.06036275253
0.077,0.06226042286
0.07702083333,0.0642157048
0.07704166667,0.06601883471
0.0770625,0.06798852235
0.07708333333,0.06993740797
0.07710416667,0.07191740721
0.077125,0.07475866377
0.07714583333,0.07811956108
0.07716666667,0.0818765685
0.0771875,0.08564323187
0.07720833333,0.08921086788
0.07722916667,0.09258024395
0.07725,0.09560669959
0.07727083333,0.09851524979
0.07729166667,0.1013468504
0.0773125,0.1040304005
0.07733333333,0.1065105721
0.07735416667,0.1087290868
0.077375,0.1107761115
0.07739583333,0.1126015931
0.07741666667,0.1142107695
0.0774375,0.1157681718
0.07745833333,0.117217727
0.07747916667,0.1185970977
0.0775,0.1197805107
0.07752083333,0.1208947897
0.07754166667,0.1219143793
0.0775625,0.1227453128
0.07758333333,0.1236040816
0.07760416667,0.1243300885
0.077625,0.1249208674
0.07764583333,0.125401184
0.07766666667,0.1257812083
0.0776875,0.1261391044
0.07770833333,0.1264963448
0.07772916667,0.1268907785
0.07775,0.1272469759
0.07777083333,0.1275672615
0.07779166667,0.1279509664
0.0778125,0.1283547282
0.07783333333,0.1287306547
0.07785416667,0.1291119009
0.077875,0.129551813
0.07789583333,0.1299875081
0.07791666667,0.1304082423
0.0779375,0.1308065653
0.07795833333,0.131154269
0.07797916667,0.1314202249
0.078,0.1316408068
0.07802083333,0.1317831427
0.07804166667,0.1319460273
0.0780625,0.1320706606
0.07808333333,0.1321197599
0.07810416667,0.1322060823
0.078125,0.1322301477
0.07814583333,0.1322013438
0.07816666667,0.1322110295
0.0781875,0.1321128905
0.07820833333,0.1320172101
0.07822916667,0.1318518668
0.07825,0.1318217516
0.07827083333,0.1319466531
0.07829166667,0.1319739521
0.0783125,0.1319626421
0.07833333333,0.1319297254
0.07835416667,0.1319638193
0.078375,0.132093668
0.07839583333,0.1325244308
0.07841666667,0.1330083013
0.0784375,0.1333675385
0.07845833333,0.1336430609
0.07847916667,0.1338443458
0.0785,0.1340529919
0.07852083333,0.1341238469
0.07854166667,0.1341260225
0.0785625,0.1340993047
0.07858333333,0.1339625418
0.07860416667,0.1338627338
0.078625,0.1336966455
0.07864583333,0.1334115267
0.07866666667,0.1331549585
0.0786875,0.1327914447
0.07870833333,0.1324063241
0.07872916667,0.1320530772
0.07875,0.1316867769
0.07877083333,0.1314065605
0.07879166667,0.131084159
0.0788125,0.1308474094
0.07883333333,0.1305593848
0.07885416667,0.1303094327
0.078875,0.1302038729
0.07889583333,0.1300661564
0.07891666667,0.1301308274
0.0789375,0.1303317398
0.07895833333,0.1306609362
0.07897916667,0.1311840713
0.079,0.1317326427
0.07902083333,0.1324651092
0.07904166667,0.1333394647
0.0790625,0.1342955232
0.07908333333,0.1354935765
0.07910416667,0.1366873384
0.079125,0.1380270571
0.07914583333,0.1394375861
0.07916666667,0.1408722252
0.0791875,0.1423556805
0.07920833333,0.143870309
0.07922916667,0.1453564316
0.07925,0.1467601508
0.07927083333,0.1482702792
0.07929166667,0.1497119069
0.0793125,0.1510490328
0.07933333333,0.1524241567
0.07935416667,0.1537361741
0.079375,0.1551147103
0.07939583333,0.1564938873
0.07941666667,0.1578269899
0.0794375,0.1590797752
0.07945833333,0.1602731943
0.07947916667,0.1615042537
0.0795,0.1627416313
0.07952083333,0.1639553159
0.07954166667,0.1651838869
0.0795625,0.1664709747
0.07958333333,0.1677335501
0.07960416667,0.1690466404
0.079625,0.1703507751
0.07964583333,0.1716856509
0.07966666667,0.1730535328
0.0796875,0.1743858457
0.07970833333,0.1758639514
0.07972916667,0.1772907078
0.07975,0.1787444353
0.07977083333,0.1802195311
0.07979166667,0.1815594882
0.0798125,0.1828952432
0.07983333333,0.1841114759
0.07985416667,0.1852801591
0.079875,0.1863803566
0.07989583333,0.1873021722
0.07991666667,0.1881391853
0.0799375,0.1888151467
0.07995833333,0.1892711073
0.07997916667,0.1895907223
0.08,0.1899758577
0.08002083333,0.1900117695
0.08004166667,0.1900074631
0.0800625,0.1898504347
0.08008333333,0.1896414459
0.08010416667,0.1893254966
0.080125,0.188952744
0.08014583333,0.1885325909
0.08016666667,0.1879658997
0.0801875,0.1874640435
0.08020833333,0.1868489087
0.08022916667,0.1861670315
0.08025,0.185542658
0.08027083333,0.1848011911
0.08029166667,0.1840775013
0.0803125,0.1832511574
0.08033333333,0.1823711842
0.08035416667,0.1816069633
0.080375,0.1807635725
0.08039583333,0.1799139678
0.08041666667,0.1790789068
0.0804375,0.1781515032
0.08045833333,0.1772658229
0.08047916667,0.1763788015
0.0805,0.1755072474
0.08052083333,0.1747222841
0.08054166667,0.1738746315
0.0805625,0.1730528474
0.08058333333,0.1721690446
0.08060416667,0.1712824106
0.080625,0.1704299897
0.08064583333,0.1695925742
0.08066666667,0.1687642783
0.0806875,0.167900458
0.08070833333,0.1671171337
0.08072916667,0.1663097739
0.08075,0.165547967
0.08077083333,0.16477786
0.08079166667,0.1640624106
0.0808125,0.1634297073
0.08083333333,0.1627563685
0.08085416667,0.1622378379
0.080875,0.1617635041
0.08089583333,0.1613445878
0.08091666667,0.1609805822
0.0809375,0.1606339067
0.08095833333,0.1603918225
0.08097916667,0.1601691693
0.081,0.1600656956
0.08102083333,0.1600432992
0.08104166667,0.1600134373
0.0810625,0.1601215452
0.08108333333,0.1602461338
0.08110416667,0.1603665054
0.081125,0.1605807543
0.08114583333,0.1607707441
0.08116666667,0.1609574109
0.0811875,0.1610958278
0.08120833333,0.1612154394
0.08122916667,0.1613512337
0.08125,0.1614539027
0.08127083333,0.1616570204
0.08129166667,0.1617587954
0.0813125,0.161889866
0.08133333333,0.1621270627
0.08135416667,0.1622701734
0.081375,0.162415117
0.08139583333,0.162535578
0.08141666667,0.1626704633
0.0814375,0.1627386063
0.08145833333,0.1627705097
0.08147916667,0.1627804935
0.0815,0.162715897
0.08152083333,0.1625997871
0.08154166667,0.1624515057
0.0815625,0.1623339504
0.08158333333,0.1621062011
0.08160416667,0.1618906409
0.081625,0.161530599
0.08164583333,0.1612021178
0.08166666667,0.160860464
0.0816875,0.1603541523
0.08170833333,0.159965679
0.08172916667,0.1594885737
0.08175,0.1590499282
0.08177083333,0.1586224139
0.08179166667,0.1581578851
0.0818125,0.1577429771
0.08183333333,0.1573292017
0.08185416667,0.1569831818
0.081875,0.1566789448
0.08189583333,0.1564635783
0.08191666667,0.1562471986
0.0819375,0.1561447829
0.08195833333,0.1561731547
0.08197916667,0.1562394351
0.082,0.1563175172
0.08202083333,0.1563997418
0.08204166667,0.1566489041
0.0820625,0.1569130421
0.08208333333,0.1571504325
0.08210416667,0.157501325
0.082125,0.1579139382
0.08214583333,0.1583272964
0.08216666667,0.1587612927
0.0821875,0.1592444181
0.08220833333,0.1596973389
0.08222916667,0.1601389498
0.08225,0.1605436206
0.08227083333,0.1609274447
0.08229166667,0.1612892598
0.0823125,0.1616335064
0.08233333333,0.1619669348
0.08235416667,0.1622118503
0.082375,0.1622697413
0.08239583333,0.1621865332
0.08241666667,0.1619601101
0.0824375,0.1615289003
0.08245833333,0.1609440595
0.08247916667,0.1602633297
0.0825,0.1594606191
0.08252083333,0.1585021317
0.08254166667,0.1574528068
0.0825625,0.1563199759
0.08258333333,0.1551095098
0.08260416667,0.1538139582
0.082625,0.1524964124
0.08264583333,0.1512177587
0.08266666667,0.149903819
0.0826875,0.1486104727
0.08270833333,0.1472946256
0.08272916667,0.1459647268
0.08275,0.1446255594
0.08277083333,0.1432227641
0.08279166667,0.1419169754
0.0828125,0.1405493915
0.08283333333,0.1392187625
0.08285416667,0.1379117221
0.082875,0.1365836561
0.08289583333,0.135384202
0.08291666667,0.1340868473
0.0829375,0.1328169554
0.08295833333,0.1316154003
0.08297916667,0.1304294169
0.083,0.1293391883
0.08302083333,0.1282147914
0.08304166667,0.1272245497
0.0830625,0.1263051927
0.08308333333,0.1254493892
0.08310416667,0.1247472093
0.083125,0.1240669563
0.08314583333,0.1234841645
0.08316666667,0.1230828986
0.0831875,0.122816205
0.08320833333,0.1225942224
0.08322916667,0.122477226
0.08325,0.1224590093
0.08327083333,0.1224860325
0.08329166667,0.1225459427
0.0833125,0.1227304712
0.08333333333,0.1228947565
0.08335416667,0.1230288967
0.083375,0.1232416406
0.08339583333,0.1233909875
0.08341666667,0.1234700829
0.0834375,0.123444438
0.08345833333,0.1233669221
0.08347916667,0.1232897639
0.0835,0.1231266633
0.08352083333,0.1227798536
0.08354166667,0.1223389357
0.0835625,0.1217474937
0.08358333333,0.1210372522
0.08360416667,0.1203106716
0.083625,0.1194685176
0.08364583333,0.1186487824
0.08366666667,0.1177996472
0.0836875,0.1169199273
0.08370833333,0.1160406768
0.08372916667,0.1150948182
0.08375,0.1141686961
0.08377083333,0.1132391021
0.08379166667,0.1122994795
0.0838125,0.1114563495
0.08383333333,0.1106181443
0.08385416667,0.1097405478
0.083875,0.1088510752
0.08389583333,0.1079145148
0.08391666667,0.1070528701
0.0839375,0.1061489582
0.08395833333,0.1052542105
0.08397916667,0.1043773964
0.084,0.103464745
0.08402083333,0.1026476324
0.08404166667,0.1018088311
0.0840625,0.1009813696
0.08408333333,0.1001851708
0.08410416667,0.09939062595
0.084125,0.0987111479
0.08414583333,0.09795413166
0.08416666667,0.09727586061
0.0841875,0.09665816277
0.08420833333,0.09589459747
0.08422916667,0.09513828903
0.08425,0.09430164099
0.08427083333,0.09342966229
0.08429166667,0.09248031676
0.0843125,0.09161992371
0.08433333333,0.09076210111
0.08435416667,0.08981332928
0.084375,0.08888135105
0.08439583333,0.08789216727
0.08441666667,0.08686097711
0.0844375,0.08564660698
0.08445833333,0.08438404649
0.08447916667,0.0831540972
0.0845,0.08186810464
0.08452083333,0.08060032129
0.08454166667,0.07925720513
0.0845625,0.0779132247
0.08458333333,0.07656660676
0.08460416667,0.07516224682
0.084625,0.07378134876
0.08464583333,0.07232194394
0.08466666667,0.07080848515
0.0846875,0.06936647743
0.08470833333,0.06792403758
0.08472916667,0.06659729779
0.08475,0.06539072841
0.08477083333,0.06414795667
0.08479166667,0.0629863739
0.0848125,0.06188813224
0.08483333333,0.06079027057
0.08485416667,0.05974271894
0.084875,0.0586508438
0.08489583333,0.05756809562
0.08491666667,0.05652460083
0.0849375,0.05536144599
0.08495833333,0.05415734649
0.08497916667,0.05292509124
0.085,0.051599022
0.08502083333,0.05024342239
0.08504166667,0.04889624566
0.0850625,0.04752011225
0.08508333333,0.04609486088
0.08510416667,0.04470125586
0.085125,0.04332979023
0.08514583333,0.0418760702
0.08516666667,0.04052615911
0.0851875,0.03915688023
0.08520833333,0.03785134852
0.08522916667,0.03664693981
0.08525,0.03536421061
0.08527083333,0.03423426673
0.08529166667,0.03307982162
0.0853125,0.03188190982
0.08533333333,0.03075404465
0.08535416667,0.02952370793
0.085375,0.02833195403
0.08539583333,0.02714236081
0.08541666667,0.02590134181
0.0854375,0.02473557927
0.08545833333,0.02359074727
0.08547916667,0.02246311121
0.0855,0.0213169232
0.08552083333,0.02017891966
0.08554166667,0.01909023337
0.0855625,0.01805246994
0.08558333333,0.01709822379
0.08560416667,0.01611894742
0.085625,0.01514998265
0.08564583333,0.01408785023
0.08566666667,0.0128912963
0.0856875,0.01156882662
0.08570833333,0.01014875248
0.08572916667,0.008621927351
0.08575,0.006894501857
0.08577083333,0.00524788769
0.08579166667,0.003565991996
0.0858125,0.001746846596
0.08583333333,-3.251247108e-06
0.08585416667,-0.001721912762
0.085875,-0.00340679381
0.08589583333,-0.005127458833
0.08591666667,-0.006820322014
0.0859375,-0.008431315422
0.08595833333,-0.0100732008
0.08597916667,-0.01160689816
0.086,-0.01307823043
0.08602083333,-0.01448568329
0.08604166667,-0.01579872891
0.0860625,-0.01706461422
0.08608333333,-0.01820864715
0.08610416667,-0.01927724853
0.086125,-0.02030096017
0.08614583333,-0.02127574757
0.08616666667,-0.02220248803
0.0861875,-0.02304624021
0.08620833333,-0.02381100692
0.08622916667,-0.02456379496
0.08625,-0.02524281666
0.08627083333,-0.02594999224
0.08629166667,-0.02667506784
0.0863125,-0.02746867016
0.08633333333,-0.02832667157
0.08635416667,-0.02918466553
0.086375,-0.03011235781
0.08639583333,-0.03105104901
0.08641666667,-0.03203435615
0.0864375,-0.03303395584
0.08645833333,-0.03407649696
0.08647916667,-0.0351334475
0.0865,-0.03619562089
0.08652083333,-0.03731769323
0.08654166667,-0.03834176809
0.0865625,-0.03938345239
0.08658333333,-0.04048040882
0.08660416667,-0.04129481316
0.086625,-0.04213716462
0.08664583333,-0.04324758425
0.08666666667,-0.04440634698
0.0866875,-0.04576100409
0.08670833333,-0.04720137268
0.08672916667,-0.04852838814
0.08675,-0.04995948821
0.08677083333,-0.05140339583
0.08679166667,-0.0528193824
0.0868125,-0.05431159213
0.08683333333,-0.05557207018
0.08685416667,-0.05686787888
0.086875,-0.0581748113
0.08689583333,-0.05934461951
0.08691666667,-0.0605744943
0.0869375,-0.0617534481
0.08695833333,-0.06304486096
0.08697916667,-0.06422131509
0.087,-0.06524908543
0.08702083333,-0.06617946178
0.08704166667,-0.06696897745
0.0870625,-0.06783184409
0.08708333333,-0.06851314753
0.08710416667,-0.06892725825
0.087125,-0.06926304102
0.08714583333,-0.0694219172
0.08716666667,-0.06941933185
0.0871875,-0.06920439005
0.08720833333,-0.06909890473
0.08722916667,-0.0689586699
0.08725,-0.06890656054
0.08727083333,-0.06919119507
0.08729166667,-0.0694963783
0.0873125,-0.06975772232
0.08733333333,-0.06996458769
0.08735416667,-0.07023350149
0.087375,-0.07058181614
0.08739583333,-0.07083749026
0.08741666667,-0.07129058987
0.0874375,-0.07193522155
0.08745833333,-0.07277224958
0.08747916667,-0.07352598011
0.0875,-0.07415594906
0.08752083333,-0.07463222742
0.08754166667,-0.07494990528
0.0875625,-0.07536045462
0.08758333333,-0.07580132037
0.08760416667,-0.07632672042
0.087625,-0.07700866461
0.08764583333,-0.07771292329
0.08766666667,-0.07855544239
0.0876875,-0.0794153735
0.08770833333,-0.08030407131
0.08772916667,-0.08118834347
0.08775,-0.08205334097
0.08777083333,-0.08300536126
0.08779166667,-0.08390487731
0.0878125,-0.08445243537
0.08783333333,-0.08480612189
0.08785416667,-0.08515992016
0.087875,-0.08555872738
0.08789583333,-0.085866265
0.08791666667,-0.08596167713
0.0879375,-0.08610187471
0.08795833333,-0.08618356287
0.08797916667,-0.08597305417
0.088,-0.08554267883
0.08802083333,-0.08485676348
0.08804166667,-0.08415647596
0.0880625,-0.08359961957
0.08808333333,-0.08297023922
0.08810416667,-0.08220434934
0.088125,-0.08139228076
0.08814583333,-0.0804399997
0.08816666667,-0.07958193868
0.0881875,-0.0789866671
0.08820833333,-0.07835034281
0.08822916667,-0.07759101689
0.08825,-0.07700942457
0.08827083333,-0.07649792731
0.08829166667,-0.07594743371
0.0883125,-0.07523179799
0.08833333333,-0.07455179095
0.08835416667,-0.07423529774
0.088375,-0.07397568971
0.08839583333,-0.07384580374
0.08841666667,-0.07348768413
0.0884375,-0.07254244387
0.08845833333,-0.07193377614
0.08847916667,-0.07152827829
0.0885,-0.07122898102
0.08852083333,-0.07117408514
0.08854166667,-0.07109364867
0.0885625,-0.0709989965
0.08858333333,-0.07092863321
0.08860416667,-0.07107327878
0.088625,-0.0709278658
0.08864583333,-0.07059274614
0.08866666667,-0.07049152255
0.0886875,-0.07050570101
0.08870833333,-0.07072158158
0.08872916667,-0.07105768472
0.08875,-0.07154764235
0.08877083333,-0.0721000731
0.08879166667,-0.0726557523
0.0888125,-0.07316058129
0.08883333333,-0.07363570482
0.08885416667,-0.07414774597
0.088875,-0.07470349222
0.08889583333,-0.07540561259
0.08891666667,-0.07630832493
0.0889375,-0.07726357877
0.08895833333,-0.07780236006
0.08897916667,-0.07794938982
0.089,-0.07843090594
0.08902083333,-0.07913707197
0.08904166667,-0.07991848886
0.0890625,-0.08072709292
0.08908333333,-0.08138419688
0.08910416667,-0.0820985958
0.089125,-0.08301322162
0.08914583333,-0.0840568766
0.08916666667,-0.08513070643
0.0891875,-0.08630514145
0.08920833333,-0.08749337494
0.08922916667,-0.08874288201
0.08925,-0.09020411223
0.08927083333,-0.09177579731
0.08929166667,-0.09345083684
0.0893125,-0.09519613534
0.08933333333,-0.09703417122
0.08935416667,-0.09896571934
0.089375,-0.1009553075
0.08939583333,-0.1029809862
0.08941666667,-0.1050198451
0.0894375,-0.107105352
0.08945833333,-0.1092004701
0.08947916667,-0.1113124043
0.0895,-0.1134346724
0.08952083333,-0.1155800074
0.08954166667,-0.1177572012
0.0895625,-0.1199203581
0.08958333333,-0.1221391782
0.08960416667,-0.1243799478
0.089625,-0.1266721487
0.08964583333,-0.1290423572
0.08966666667,-0.1313798428
0.0896875,-0.1336752921
0.08970833333,-0.1359578669
0.08972916667,-0.1381944269
0.08975,-0.1404183209
0.08977083333,-0.1425618082
0.08979166667,-0.1446144432
0.0898125,-0.1466362327
0.08983333333,-0.1485092044
0.08985416667,-0.1502022445
0.089875,-0.1518514305
0.08989583333,-0.1533899307
0.08991666667,-0.1548062265
0.0899375,-0.1561427116
0.08995833333,-0.157333374
0.08997916667,-0.1583921015
0.09,-0.1593405455
0.09002083333,-0.1600761265
0.09004166667,-0.1607090682
0.0900625,-0.1612614393
0.09008333333,-0.1617158204
0.09010416667,-0.1621381342
0.090125,-0.1624837816
0.09014583333,-0.1627794653
0.09016666667,-0.1630083919
0.0901875,-0.1631401926
0.09020833333,-0.1632791609
0.09022916667,-0.1632824838
0.09025,-0.1632692516
0.09027083333,-0.1632624567
0.09029166667,-0.1631815881
0.0903125,-0.1630792767
0.09033333333,-0.1629462689
0.09035416667,-0.1627792567
0.090375,-0.1625044346
0.09039583333,-0.1622669548
0.09041666667,-0.1620086879
0.0904375,-0.1617148221
0.09045833333,-0.1614084989
0.09047916667,-0.1610078812
0.0905,-0.1606883705
0.09052083333,-0.1603575498
0.09054166667,-0.1599865705
0.0905625,-0.1596192569
0.09058333333,-0.1592134982
0.09060416667,-0.158851102
0.090625,-0.1584804207
0.09064583333,-0.1581352502
0.09066666667,-0.1577418745
0.0906875,-0.1573875248
0.09070833333,-0.1570280939
0.09072916667,-0.1566436142
0.09075,-0.1562768519
0.09077083333,-0.1559692323
0.09079166667,-0.155673638
0.0908125,-0.155514285
0.09083333333,-0.1553927809
0.09085416667,-0.1552526206
0.090875,-0.1551741362
0.09089583333,-0.1551626772
0.09091666667,-0.1552599519
0.0909375,-0.1554358751
0.09095833333,-0.1556272954
0.09097916667,-0.1558676362
0.091,-0.1561042517
0.09102083333,-0.1564130038
0.09104166667,-0.1567426175
0.0910625,-0.1570533216
0.09108333333,-0.1574061066
0.09110416667,-0.157802701
0.091125,-0.1583147198
0.09114583333,-0.1588468254
0.09116666667,-0.159400031
0.0911875,-0.1600149125
0.09120833333,-0.1606403142
0.09122916667,-0.1612522751
0.09125,-0.1618383527
0.09127083333,-0.1624613553
0.09129166667,-0.1629615426
0.0913125,-0.1634489298
0.09133333333,-0.1639956534
0.09135416667,-0.1644760668
0.091375,-0.1649183631
0.09139583333,-0.1653327793
0.09141666667,-0.1657308638
0.0914375,-0.1660491377
0.09145833333,-0.1663595736
0.09147916667,-0.1665902138
0.0915,-0.166736424
0.09152083333,-0.166856572
0.09154166667,-0.1668888927
0.0915625,-0.1669591218
0.09158333333,-0.1668791175
0.09160416667,-0.1667800695
0.091625,-0.1666108817
0.09164583333,-0.1662794352
0.09166666667,-0.1659583747
0.0916875,-0.1655332297
0.09170833333,-0.1651513875
0.09172916667,-0.1647467464
0.09175,-0.1644060761
0.09177083333,-0.1641027033
0.09179166667,-0.163742587
0.0918125,-0.1634607464
0.09183333333,-0.1632356346
0.09185416667,-0.163062349
0.091875,-0.16292651
0.09189583333,-0.1628382653
0.09191666667,-0.1628147364
0.0919375,-0.1628522724
0.09195833333,-0.1629303992
0.09197916667,-0.1630634069
0.092,-0.1632989645
0.09202083333,-0.1635741591
0.09204166667,-0.1639709771
0.0920625,-0.164455235
0.09208333333,-0.16500552
0.09210416667,-0.1655700803
0.092125,-0.1661876738
0.09214583333,-0.1668431461
0.09216666667,-0.1674828976
0.0921875,-0.1681504548
0.09220833333,-0.1688468009
0.09222916667,-0.1695332229
0.09225,-0.1701710969
0.09227083333,-0.170804441
0.09229166667,-0.1713345051
0.0923125,-0.1718152016
0.09233333333,-0.1722176671
0.09235416667,-0.1724810302
0.092375,-0.1726486981
