time,data
0,6.474055514e-09
2.083333333e-05,1.446996656e-08
4.166666667e-05,2.207452887e-08
6.25e-05,2.923166598e-08
8.333333333e-05,3.641866542e-08
0.0001041666667,4.393396225e-08
0.000125,5.189543018e-08
0.0001458333333,6.013365805e-08
0.0001666666667,6.821515086e-08
0.0001875,7.6110382e-08
0.0002083333333,8.384312622e-08
0.0002291666667,9.195713346e-08
0.00025,1.007116239e-07
0.0002708333333,1.102022011e-07
0.0002916666667,1.201835431e-07
0.0003125,1.301543762e-07
0.0003333333333,1.400160698e-07
0.0003541666667,1.496355821e-07
0.000375,1.594101775e-07
0.0003958333333,1.694052543e-07
0.0004166666667,1.796024378e-07
0.0004375,1.897153226e-07
0.0004583333333,1.99241029e-07
0.0004791666667,2.081138462e-07
0.0005,2.16186109e-07
0.0005208333333,2.239017789e-07
0.0005416666667,2.314077108e-07
0.0005625,2.389092799e-07
0.0005833333333,2.463131352e-07
0.0006041666667,2.53276113e-07
0.000625,2.596936497e-07
0.0006458333333,2.652763271e-07
0.0006666666667,2.703408768e-07
0.0006875,2.749401347e-07
0.0007083333333,2.793347562e-07
0.0007291666667,2.833587587e-07
0.00075,2.864965722e-07
0.0007708333333,2.883515435e-07
0.0007916666667,2.883158174e-07
0.0008125,2.867416242e-07
0.0008333333333,2.838403645e-07
0.0008541666667,2.803020038e-07
0.000875,2.762126599e-07
0.0008958333333,2.711287266e-07
0.0009166666667,2.646404766e-07
0.0009375,2.561524184e-07
0.0009583333333,2.462976454e-07
0.0009791666667,2.356812132e-07
0.001,2.252256905e-07
0.001020833333,2.149821512e-07
0.001041666667,2.040578408e-07
0.0010625,1.915784651e-07
0.001083333333,1.76649479e-07
0.001104166667,1.598992299e-07
0.001125,1.420890641e-07
0.001145833333,1.242047603e-07
0.001166666667,1.060920383e-07
0.0011875,8.671589313e-08
0.001208333333,6.507539041e-08
0.001229166667,4.07027585e-08
0.00125,1.476359035e-08
0.001270833333,-1.141265749e-08
0.001291666667,-3.650312053e-08
0.0013125,-6.072995262e-08
0.001333333333,-8.518495065e-08
0.001354166667,-1.108898857e-07
0.001375,-1.382784802e-07
0.001395833333,-1.660414171e-07
0.001416666667,-1.93187816e-07
0.0014375,-2.18740638e-07
0.001458333333,-2.435077988e-07
0.001479166667,-2.688793472e-07
0.0015,-2.959005769e-07
0.001520833333,-3.248696601e-07
0.001541666667,-3.543428306e-07
0.0015625,-3.832074071e-07
0.001583333333,-4.10448763e-07
0.001604166667,-4.36475375e-07
0.001625,-4.622064864e-07
0.001645833333,-4.880844244e-07
0.001666666667,-5.140656185e-07
0.0016875,-5.387233841e-07
0.001708333333,-5.611986467e-07
0.001729166667,-5.806529089e-07
0.00175,-5.977245792e-07
0.001770833333,-6.132742101e-07
0.001791666667,-6.281985065e-07
0.0018125,-6.429367545e-07
0.001833333333,-6.568207027e-07
0.001854166667,-6.694502304e-07
0.001875,-6.799324979e-07
0.001895833333,-6.884867503e-07
0.001916666667,-6.955402228e-07
0.0019375,-7.016357131e-07
0.001958333333,-7.073644497e-07
0.001979166667,-7.117947121e-07
0.002,-7.142432423e-07
0.002020833333,-7.129809205e-07
0.002041666667,-7.076265547e-07
0.0020625,-6.985339951e-07
0.002083333333,-6.868268088e-07
0.002104166667,-6.739945775e-07
0.002125,-6.599279345e-07
0.002145833333,-6.440309903e-07
0.002166666667,-6.247580586e-07
0.0021875,-6.016179555e-07
0.002208333333,-5.757194685e-07
0.002229166667,-5.488568604e-07
0.00225,-5.230542683e-07
0.002270833333,-4.979736445e-07
0.002291666667,-4.720589004e-07
0.0023125,-4.426656517e-07
0.002333333333,-4.087266348e-07
0.002354166667,-3.71105557e-07
0.002375,-3.320672022e-07
0.002395833333,-2.934282293e-07
0.002416666667,-2.547587314e-07
0.0024375,-2.139893382e-07
0.002458333333,-1.686135533e-07
0.002479166667,-1.182850653e-07
0.0025,-6.509610984e-08
0.002520833333,-1.229266555e-08
0.002541666667,3.760270317e-08
0.0025625,8.522117412e-08
0.002583333333,1.325297632e-07
0.002604166667,1.822391624e-07
0.002625,2.344398808e-07
0.002645833333,2.8724358e-07
0.002666666667,3.379792588e-07
0.0026875,3.85203947e-07
0.002708333333,4.304085053e-07
0.002729166667,4.762574406e-07
0.00275,5.251812354e-07
0.002770833333,5.772976692e-07
0.002791666667,6.302786915e-07
0.0028125,6.816617883e-07
0.002833333333,7.295755609e-07
0.002854166667,7.749283668e-07
0.002875,8.190480685e-07
0.002895833333,8.633431321e-07
0.002916666667,9.072101648e-07
0.0029375,9.486811337e-07
0.002958333333,9.85720817e-07
0.002979166667,1.017150453e-06
0.003,1.043810585e-06
0.003020833333,1.067365702e-06
0.003041666667,1.089544526e-06
0.0030625,1.111203119e-06
0.003083333333,1.131590693e-06
0.003104166667,1.149822651e-06
0.003125,1.164407308e-06
0.003145833333,1.17552338e-06
0.003166666667,1.183566269e-06
0.0031875,1.19003812e-06
0.003208333333,1.195529194e-06
0.003229166667,1.199407961e-06
0.00325,1.199873054e-06
0.003270833333,1.194213951e-06
0.003291666667,1.18132175e-06
0.0033125,1.161596515e-06
0.003333333333,1.137361664e-06
0.003354166667,1.111268034e-06
0.003375,1.083576194e-06
0.003395833333,1.053462483e-06
0.003416666667,1.017729346e-06
0.0034375,9.758532542e-07
0.003458333333,9.289584e-07
0.003479166667,8.808906387e-07
0.0035,8.349499012e-07
0.003520833333,7.91082698e-07
0.003541666667,7.465198451e-07
0.0035625,6.965407238e-07
0.003583333333,6.390511658e-07
0.003604166667,5.754910717e-07
0.003625,5.096867426e-07
0.003645833333,4.452355995e-07
0.003666666667,3.812697571e-07
0.0036875,3.146365373e-07
0.003708333333,2.405303121e-07
0.003729166667,1.586411145e-07
0.00375,7.201931851e-08
0.003770833333,-1.321633647e-08
0.003791666667,-9.313893656e-08
0.0038125,-1.683007298e-07
0.003833333333,-2.424021091e-07
0.003854166667,-3.200151184e-07
0.003875,-4.01362513e-07
0.003895833333,-4.834017773e-07
0.003916666667,-5.614327847e-07
0.0039375,-6.329613598e-07
0.003958333333,-7.007909062e-07
0.003979166667,-7.689239965e-07
0.004,-8.423981512e-07
0.004020833333,-9.20384764e-07
0.004041666667,-9.99989993e-07
0.0040625,-1.076038302e-06
0.004083333333,-1.146117484e-06
0.004104166667,-1.21143205e-06
0.004125,-1.274477995e-06
0.004145833333,-1.337875801e-06
0.004166666667,-1.400274641e-06
0.0041875,-1.458683641e-06
0.004208333333,-1.509307253e-06
0.004229166667,-1.550327738e-06
0.00425,-1.583604899e-06
0.004270833333,-1.611460561e-06
0.004291666667,-1.638011781e-06
0.0043125,-1.66314544e-06
0.004333333333,-1.686990117e-06
0.004354166667,-1.70637918e-06
0.004375,-1.72009436e-06
0.004395833333,-1.727984795e-06
0.004416666667,-1.731175985e-06
0.0044375,-1.732746568e-06
0.004458333333,-1.732713372e-06
0.004479166667,-1.730757162e-06
0.0045,-1.72281193e-06
0.004520833333,-1.704977876e-06
0.004541666667,-1.675985459e-06
0.0045625,-1.636001798e-06
0.004583333333,-1.590659394e-06
0.004604166667,-1.541960842e-06
0.004625,-1.492330398e-06
0.004645833333,-1.437905212e-06
0.004666666667,-1.375288093e-06
0.0046875,-1.303001113e-06
0.004708333333,-1.223412482e-06
0.004729166667,-1.143557711e-06
0.00475,-1.067294534e-06
0.004770833333,-9.956048643e-07
0.004791666667,-9.224631867e-07
0.0048125,-8.411275871e-07
0.004833333333,-7.487229823e-07
0.004854166667,-6.469492178e-07
0.004875,-5.43970657e-07
0.004895833333,-4.427881208e-07
0.004916666667,-3.444985168e-07
0.0049375,-2.411396736e-07
0.004958333333,-1.273874375e-07
0.004979166667,-1.63711189e-09
0.005,1.305497079e-07
0.005020833333,2.589376891e-07
0.005041666667,3.788397009e-07
0.0050625,4.897046892e-07
0.005083333333,5.992432648e-07
0.005104166667,7.133148756e-07
0.005125,8.325086469e-07
0.005145833333,9.525471114e-07
0.005166666667,1.064352773e-06
0.0051875,1.166863285e-06
0.005208333333,1.261307148e-06
0.005229166667,1.357362748e-06
0.00525,1.45968977e-06
0.005270833333,1.56918702e-06
0.005291666667,1.680149921e-06
0.0053125,1.784706228e-06
0.005333333333,1.880343007e-06
0.005354166667,1.967120397e-06
0.005375,2.051086312e-06
0.005395833333,2.134141141e-06
0.005416666667,2.215619816e-06
0.0054375,2.29082184e-06
0.005458333333,2.353028094e-06
0.005479166667,2.402134669e-06
0.0055,2.437229568e-06
0.005520833333,2.466141268e-06
0.005541666667,2.490502538e-06
0.0055625,2.514027756e-06
0.005583333333,2.534557325e-06
0.005604166667,2.548480097e-06
0.005625,2.554943421e-06
0.005645833333,2.551315674e-06
0.005666666667,2.542248239e-06
0.0056875,2.528852747e-06
0.005708333333,2.513805384e-06
0.005729166667,2.495781928e-06
0.00575,2.468428875e-06
0.005770833333,2.428839025e-06
0.005791666667,2.370723678e-06
0.0058125,2.299373136e-06
0.005833333333,2.217291012e-06
0.005854166667,2.132351028e-06
0.005875,2.045005658e-06
0.005895833333,1.951589866e-06
0.005916666667,1.847873477e-06
0.0059375,1.729284008e-06
0.005958333333,1.602411089e-06
0.005979166667,1.473284328e-06
0.006,1.350902721e-06
0.006020833333,1.23498819e-06
0.006041666667,1.117352895e-06
0.0060625,9.906276546e-07
0.006083333333,8.463040899e-07
0.006104166667,6.922510352e-07
0.006125,5.334198931e-07
0.006145833333,3.802372248e-07
0.006166666667,2.297853428e-07
0.0061875,7.382588052e-08
0.006208333333,-9.533262357e-08
0.006229166667,-2.819429312e-07
0.00625,-4.747720652e-07
0.006270833333,-6.638907735e-07
0.006291666667,-8.385994192e-07
0.0063125,-1.000831048e-06
0.006333333333,-1.16027968e-06
0.006354166667,-1.323659831e-06
0.006375,-1.495446213e-06
0.006395833333,-1.664256274e-06
0.006416666667,-1.824185233e-06
0.0064375,-1.967001481e-06
0.006458333333,-2.100566689e-06
0.006479166667,-2.23386337e-06
0.0065,-2.375469649e-06
0.006520833333,-2.526910521e-06
0.006541666667,-2.677441671e-06
0.0065625,-2.820677992e-06
0.006583333333,-2.947995654e-06
0.006604166667,-3.064337761e-06
0.006625,-3.175065785e-06
0.006645833333,-3.283156047e-06
0.006666666667,-3.390122629e-06
0.0066875,-3.483884939e-06
0.006708333333,-3.562704023e-06
0.006729166667,-3.618152277e-06
0.00675,-3.657264415e-06
0.006770833333,-3.684666353e-06
0.006791666667,-3.706453299e-06
0.0068125,-3.726838031e-06
0.006833333333,-3.740497505e-06
0.006854166667,-3.746855782e-06
0.006875,-3.739028671e-06
0.006895833333,-3.71950091e-06
0.006916666667,-3.69040481e-06
0.0069375,-3.655528417e-06
0.006958333333,-3.619524477e-06
0.006979166667,-3.575833944e-06
0.007,-3.522891348e-06
0.007020833333,-3.447299605e-06
0.007041666667,-3.350544603e-06
0.0070625,-3.231538813e-06
0.007083333333,-3.100290542e-06
0.007104166667,-2.964946589e-06
0.007125,-2.824762078e-06
0.007145833333,-2.678880264e-06
0.007166666667,-2.514567768e-06
0.0071875,-2.333237944e-06
0.007208333333,-2.13797307e-06
0.007229166667,-1.94127324e-06
0.00725,-1.755443805e-06
0.007270833333,-1.575894089e-06
0.007291666667,-1.398578547e-06
0.0073125,-1.202949534e-06
0.007333333333,-9.887330634e-07
0.007354166667,-7.567218177e-07
0.007375,-5.221734227e-07
0.007395833333,-2.9526106e-07
0.007416666667,-7.183514583e-08
0.0074375,1.558803007e-07
0.007458333333,4.054907947e-07
0.007479166667,6.747038697e-07
0.0075,9.552655911e-07
0.007520833333,1.228043971e-06
0.007541666667,1.479691832e-06
0.0075625,1.715659437e-06
0.007583333333,1.942749805e-06
0.007604166667,2.180340061e-06
0.007625,2.423113074e-06
0.007645833333,2.666871978e-06
0.007666666667,2.893548299e-06
0.0076875,3.098186653e-06
0.007708333333,3.288805146e-06
0.007729166667,3.476162419e-06
0.00775,3.677380846e-06
0.007770833333,3.887118964e-06
0.007791666667,4.099308171e-06
0.0078125,4.29771535e-06
0.007833333333,4.474937214e-06
0.007854166667,4.637056918e-06
0.007875,4.786857971e-06
0.007895833333,4.93767493e-06
0.007916666667,5.079497896e-06
0.0079375,5.210172276e-06
0.007958333333,5.314403097e-06
0.007979166667,5.390426395e-06
0.008,5.442163001e-06
0.008020833333,5.475494618e-06
0.008041666667,5.503742614e-06
0.0080625,5.524493645e-06
0.008083333333,5.540976417e-06
0.008104166667,5.543487987e-06
0.008125,5.528845577e-06
0.008145833333,5.498033715e-06
0.008166666667,5.450280696e-06
0.0081875,5.398757821e-06
0.008208333333,5.338014489e-06
0.008229166667,5.274206615e-06
0.00825,5.191305263e-06
0.008270833333,5.083741144e-06
0.008291666667,4.944831289e-06
0.0083125,4.775525667e-06
0.008333333333,4.591601737e-06
0.008354166667,4.396577424e-06
0.008375,4.20077231e-06
0.008395833333,3.99228702e-06
0.008416666667,3.763710311e-06
0.0084375,3.511502655e-06
0.008458333333,3.238259296e-06
0.008479166667,2.967114369e-06
0.0085,2.702093752e-06
0.008520833333,2.453547268e-06
0.008541666667,2.200156587e-06
0.0085625,1.929970722e-06
0.008583333333,1.631659643e-06
0.008604166667,1.310596986e-06
0.008625,9.875792557e-07
0.008645833333,6.692339412e-07
0.008666666667,3.613205877e-07
0.0086875,4.225613637e-08
0.008708333333,-2.997950901e-07
0.008729166667,-6.691511771e-07
0.00875,-1.054032737e-06
0.008770833333,-1.425153414e-06
0.008791666667,-1.776075806e-06
0.0088125,-2.09811401e-06
0.008833333333,-2.417320275e-06
0.008854166667,-2.741411663e-06
0.008875,-3.077417659e-06
0.008895833333,-3.411806802e-06
0.008916666667,-3.723227337e-06
0.0089375,-4.010223165e-06
0.008958333333,-4.272916613e-06
0.008979166667,-4.537988389e-06
0.009,-4.814396561e-06
0.009020833333,-5.10505879e-06
0.009041666667,-5.397770565e-06
0.0090625,-5.669197435e-06
0.009083333333,-5.919307114e-06
0.009104166667,-6.140954156e-06
0.009125,-6.356146514e-06
0.009145833333,-6.56329803e-06
0.009166666667,-6.765532817e-06
0.0091875,-6.948777809e-06
0.009208333333,-7.097843991e-06
0.009229166667,-7.212683158e-06
0.00925,-7.290646408e-06
0.009270833333,-7.351533441e-06
0.009291666667,-7.399440619e-06
0.0093125,-7.442688002e-06
0.009333333333,-7.477386134e-06
0.009354166667,-7.492030818e-06
0.009375,-7.487997209e-06
0.009395833333,-7.454736078e-06
0.009416666667,-7.409430509e-06
0.0094375,-7.349276984e-06
0.009458333333,-7.286818345e-06
0.009479166667,-7.213188837e-06
0.0095,-7.116827874e-06
0.009520833333,-6.988404948e-06
0.009541666667,-6.814134395e-06
0.0095625,-6.608272088e-06
0.009583333333,-6.376306374e-06
0.009604166667,-6.137928267e-06
0.009625,-5.893866728e-06
0.009645833333,-5.63285721e-06
0.009666666667,-5.348111245e-06
0.0096875,-5.024396614e-06
0.009708333333,-4.683935458e-06
0.009729166667,-4.335515769e-06
0.00975,-4.006174095e-06
0.009770833333,-3.689310233e-06
0.009791666667,-3.369454816e-06
0.0098125,-3.025771548e-06
0.009833333333,-2.641379524e-06
0.009854166667,-2.234451358e-06
0.009875,-1.817696898e-06
0.009895833333,-1.415909878e-06
0.009916666667,-1.021341063e-06
0.0099375,-6.141645486e-07
0.009958333333,-1.776717653e-07
0.009979166667,3.008990461e-07
0.01,8.033795211e-07
0.01002083333,1.306909326e-06
0.01004166667,1.755047379e-06
0.0100625,2.15844716e-06
0.01008333333,2.543828487e-06
0.01010416667,2.943162144e-06
0.010125,3.372954552e-06
0.01014583333,3.812604746e-06
0.01016666667,4.237695975e-06
0.0101875,4.620522304e-06
0.01020833333,4.968992471e-06
0.01022916667,5.305303603e-06
0.01025,5.651292668e-06
0.01027083333,6.024208687e-06
0.01029166667,6.403533916e-06
0.0103125,6.779202977e-06
0.01033333333,7.120713235e-06
0.01035416667,7.434628969e-06
0.010375,7.718826055e-06
0.01039583333,7.986044693e-06
0.01041666667,8.238333066e-06
0.0104375,8.464076018e-06
0.01045833333,8.666534995e-06
0.01047916667,8.832825188e-06
0.0105,8.972445357e-06
0.01052083333,9.088095794e-06
0.01054166667,9.182511349e-06
0.0105625,9.260692423e-06
0.01058333333,9.310778296e-06
0.01060416667,9.341275472e-06
0.010625,9.34140553e-06
0.01064583333,9.329648492e-06
0.01066666667,9.300545571e-06
0.0106875,9.265764675e-06
0.01070833333,9.219308595e-06
0.01072916667,9.150341612e-06
0.01075,9.050302651e-06
0.01077083333,8.899128261e-06
0.01079166667,8.70706117e-06
0.0108125,8.476135008e-06
0.01083333333,8.227849321e-06
0.01085416667,7.976267625e-06
0.010875,7.709388228e-06
0.01089583333,7.423414445e-06
0.01091666667,7.081302101e-06
0.0109375,6.699224741e-06
0.01095833333,6.280025445e-06
0.01097916667,5.871038411e-06
0.011,5.490188414e-06
0.01102083333,5.135608262e-06
0.01104166667,4.788962087e-06
0.0110625,4.398525562e-06
0.01108333333,3.95924053e-06
0.01110416667,3.471179753e-06
0.011125,2.970084779e-06
0.01114583333,2.486362519e-06
0.01116666667,2.016682402e-06
0.0111875,1.552805202e-06
0.01120833333,1.045129579e-06
0.01122916667,4.997436349e-07
0.01125,-8.332570189e-08
0.01127083333,-6.595871582e-07
0.01129166667,-1.205910507e-06
0.0113125,-1.715639428e-06
0.01133333333,-2.201044708e-06
0.01135416667,-2.692082035e-06
0.011375,-3.186697995e-06
0.01139583333,-3.682887382e-06
0.01141666667,-4.158872343e-06
0.0114375,-4.607472874e-06
0.01145833333,-5.043991678e-06
0.01147916667,-5.474887985e-06
0.0115,-5.929351573e-06
0.01152083333,-6.381687854e-06
0.01154166667,-6.83018061e-06
0.0115625,-7.24234269e-06
0.01158333333,-7.622044905e-06
0.01160416667,-7.983832802e-06
0.011625,-8.335987332e-06
0.01164583333,-8.696380064e-06
0.01166666667,-9.04290664e-06
0.0116875,-9.356654118e-06
0.01170833333,-9.612888789e-06
0.01172916667,-9.805438822e-06
0.01175,-9.952374057e-06
0.01177083333,-1.006972616e-05
0.01179166667,-1.019239335e-05
0.0118125,-1.030702151e-05
0.01183333333,-1.042309668e-05
0.01185416667,-1.050662104e-05
0.011875,-1.054792392e-05
0.01189583333,-1.054893255e-05
0.01191666667,-1.051062009e-05
0.0119375,-1.046368925e-05
0.01195833333,-1.041528685e-05
0.01197916667,-1.036835511e-05
0.012,-1.030307158e-05
0.01202083333,-1.018478088e-05
0.01204166667,-1.000318753e-05
0.0120625,-9.747237527e-06
0.01208333333,-9.455620784e-06
0.01210416667,-9.13666463e-06
0.012125,-8.825011719e-06
0.01214583333,-8.511993656e-06
0.01216666667,-8.181931662e-06
0.0121875,-7.810534953e-06
0.01220833333,-7.398253729e-06
0.01222916667,-6.962809493e-06
0.01225,-6.525832305e-06
0.01227083333,-6.100057817e-06
0.01229166667,-5.674567092e-06
0.0123125,-5.233223874e-06
0.01233333333,-4.768568942e-06
0.01235416667,-4.265319149e-06
0.012375,-3.750010592e-06
0.01239583333,-3.221726502e-06
0.01241666667,-2.690045449e-06
0.0124375,-2.127575726e-06
0.01245833333,-1.540491326e-06
0.01247916667,-9.268256917e-07
0.0125,-3.113323999e-07
0.01252083333,2.790845599e-07
0.01254166667,8.425045053e-07
0.0125625,1.395229106e-06
0.01258333333,1.95820553e-06
0.01260416667,2.542182983e-06
0.012625,3.13160831e-06
0.01264583333,3.694925226e-06
0.01266666667,4.199387604e-06
0.0126875,4.662847005e-06
0.01270833333,5.10135078e-06
0.01272916667,5.567850621e-06
0.01275,6.068925813e-06
0.01277083333,6.60625301e-06
0.01279166667,7.122457646e-06
0.0128125,7.594684575e-06
0.01283333333,8.012237231e-06
0.01285416667,8.386754416e-06
0.012875,8.760128367e-06
0.01289583333,9.140231668e-06
0.01291666667,9.516568753e-06
0.0129375,9.865195352e-06
0.01295833333,1.015349153e-05
0.01297916667,1.037907077e-05
0.013,1.054253698e-05
0.01302083333,1.068600795e-05
0.01304166667,1.080701804e-05
0.0130625,1.092881666e-05
0.01308333333,1.102935585e-05
0.01310416667,1.109728055e-05
0.013125,1.113734743e-05
0.01314583333,1.114277529e-05
0.01316666667,1.112766404e-05
0.0131875,1.110140329e-05
0.01320833333,1.105836873e-05
0.01322916667,1.098691246e-05
0.01325,1.087954661e-05
0.01327083333,1.0715813e-05
0.01329166667,1.049300954e-05
0.0133125,1.025259007e-05
0.01333333333,9.972043699e-06
0.01335416667,9.681332813e-06
0.013375,9.362012861e-06
0.01339583333,8.990762581e-06
0.01341666667,8.570288628e-06
0.0134375,8.097929822e-06
0.01345833333,7.611585715e-06
0.01347916667,7.160277164e-06
0.0135,6.745776773e-06
0.01352083333,6.357262464e-06
0.01354166667,5.940701158e-06
0.0135625,5.466009952e-06
0.01358333333,4.905515652e-06
0.01360416667,4.307646122e-06
0.013625,3.707417591e-06
0.01364583333,3.158191703e-06
0.01366666667,2.642219215e-06
0.0136875,2.12353234e-06
0.01370833333,1.544926022e-06
0.01372916667,8.898744568e-07
0.01375,1.77815636e-07
0.01377083333,-5.429296266e-07
0.01379166667,-1.204261139e-06
0.0138125,-1.798855578e-06
0.01383333333,-2.335437784e-06
0.01385416667,-2.852662419e-06
0.013875,-3.40243605e-06
0.01389583333,-3.959360129e-06
0.01391666667,-4.534735581e-06
0.0139375,-5.094905646e-06
0.01395833333,-5.633799901e-06
0.01397916667,-6.149697128e-06
0.014,-6.640870652e-06
0.01402083333,-7.100128641e-06
0.01404166667,-7.533553799e-06
0.0140625,-7.957820344e-06
0.01408333333,-8.383275599e-06
0.01410416667,-8.830807019e-06
0.014125,-9.306695574e-06
0.01414583333,-9.766030416e-06
0.01416666667,-1.016181341e-05
0.0141875,-1.045177214e-05
0.01420833333,-1.063363743e-05
0.01422916667,-1.074681495e-05
0.01425,-1.087460987e-05
0.01427083333,-1.102934766e-05
0.01429166667,-1.123260063e-05
0.0143125,-1.142272322e-05
0.01433333333,-1.152030109e-05
0.01435416667,-1.14963259e-05
0.014375,-1.136321589e-05
0.01439583333,-1.120755132e-05
0.01441666667,-1.111340225e-05
0.0144375,-1.109990353e-05
0.01445833333,-1.117062766e-05
0.01447916667,-1.121081186e-05
0.0145,-1.115253872e-05
0.01452083333,-1.091284867e-05
0.01454166667,-1.052048447e-05
0.0145625,-1.004814203e-05
0.01458333333,-9.599391888e-06
0.01460416667,-9.229136595e-06
0.014625,-8.947468814e-06
0.01464583333,-8.667927432e-06
0.01466666667,-8.315637388e-06
0.0146875,-7.824385648e-06
0.01470833333,-7.213847312e-06
0.01472916667,-6.565483545e-06
0.01475,-5.975942258e-06
0.01477083333,-5.490305739e-06
0.01479166667,-5.092776973e-06
0.0148125,-4.70087025e-06
0.01483333333,-4.224566965e-06
0.01485416667,-3.595077942e-06
0.014875,-2.840705065e-06
0.01489583333,-2.062470912e-06
0.01491666667,-1.327216637e-06
0.0149375,-6.982919558e-07
0.01495833333,-1.699649061e-07
0.01497916667,3.283029741e-07
0.015,8.57478426e-07
0.01502083333,1.491332569e-06
0.01504166667,2.224538321e-06
0.0150625,3.025482556e-06
0.01508333333,3.834342806e-06
0.01510416667,4.593616268e-06
0.015125,5.218636034e-06
0.01514583333,5.727149073e-06
0.01516666667,6.131869213e-06
0.0151875,6.528115136e-06
0.01520833333,6.970538379e-06
0.01522916667,7.502388144e-06
0.01525,8.097012142e-06
0.01527083333,8.699425052e-06
0.01529166667,9.227594091e-06
0.0153125,9.641347788e-06
0.01533333333,9.975617104e-06
0.01535416667,1.030981912e-05
0.015375,1.067352787e-05
0.01539583333,1.114725819e-05
0.01541666667,1.163185061e-05
0.0154375,1.204918135e-05
0.01545833333,1.230531052e-05
0.01547916667,1.238587811e-05
0.0155,1.233920284e-05
0.01552083333,1.225514643e-05
0.01554166667,1.223959862e-05
0.0155625,1.230507769e-05
0.01558333333,1.242540293e-05
0.01560416667,1.252376842e-05
0.015625,1.25181914e-05
0.01564583333,1.242784856e-05
0.01566666667,1.225757569e-05
0.0156875,1.207516652e-05
0.01570833333,1.191134288e-05
0.01572916667,1.17781583e-05
0.01575,1.158866144e-05
0.01577083333,1.131168392e-05
0.01579166667,1.0922191e-05
0.0158125,1.043519114e-05
0.01583333333,9.950458661e-06
0.01585416667,9.495858649e-06
0.015875,9.092950677e-06
0.01589583333,8.697007615e-06
0.01591666667,8.214609807e-06
0.0159375,7.643487152e-06
0.01595833333,6.952113381e-06
0.01597916667,6.266041055e-06
0.016,5.617480838e-06
0.01602083333,5.065216556e-06
0.01604166667,4.544175226e-06
0.0160625,4.008871201e-06
0.01608333333,3.36671178e-06
0.01610416667,2.596580316e-06
0.016125,1.797347863e-06
0.01614583333,1.022647666e-06
0.01616666667,3.546069252e-07
0.0161875,-2.469108722e-07
0.01620833333,-8.334853305e-07
0.01622916667,-1.468649543e-06
0.01625,-2.231534609e-06
0.01627083333,-3.080181386e-06
0.01629166667,-3.990847745e-06
0.0163125,-4.845595868e-06
0.01633333333,-5.606233572e-06
0.01635416667,-6.23233791e-06
0.016375,-6.754281003e-06
0.01639583333,-7.232377357e-06
0.01641666667,-7.696565262e-06
0.0164375,-8.229065315e-06
0.01645833333,-8.830115803e-06
0.01647916667,-9.520665117e-06
0.0165,-1.017355498e-05
0.01652083333,-1.073025851e-05
0.01654166667,-1.117180545e-05
0.0165625,-1.149175478e-05
0.01658333333,-1.182991309e-05
0.01660416667,-1.21820467e-05
0.016625,-1.268000597e-05
0.01664583333,-1.319859075e-05
0.01666666667,-1.367206914e-05
0.0166875,-1.397420783e-05
0.01670833333,-1.40581642e-05
0.01672916667,-1.400899691e-05
0.01675,-1.389910722e-05
0.01677083333,-1.386798249e-05
0.01679166667,-1.398274617e-05
0.0168125,-1.418142438e-05
0.01683333333,-1.434205024e-05
0.01685416667,-1.435757531e-05
0.016875,-1.416079158e-05
0.01689583333,-1.37779989e-05
0.01691666667,-1.336999594e-05
0.0169375,-1.302670171e-05
0.01695833333,-1.287409941e-05
0.01697916667,-1.283371239e-05
0.017,-1.281485856e-05
0.01702083333,-1.261906982e-05
0.01704166667,-1.21695366e-05
0.0170625,-1.150469143e-05
0.01708333333,-1.070425424e-05
0.01710416667,-9.970377505e-06
0.017125,-9.371137821e-06
0.01714583333,-8.914538739e-06
0.01716666667,-8.492741472e-06
0.0171875,-7.942444427e-06
0.01720833333,-7.239972092e-06
0.01722916667,-6.371089057e-06
0.01725,-5.485564543e-06
0.01727083333,-4.670373073e-06
0.01729166667,-4.011405053e-06
0.0173125,-3.463969279e-06
0.01733333333,-2.942706715e-06
0.01735416667,-2.335026238e-06
0.017375,-1.555217523e-06
0.01739583333,-6.180885066e-07
0.01741666667,4.420497248e-07
0.0174375,1.521820309e-06
0.01745833333,2.487741995e-06
0.01747916667,3.311686669e-06
0.0175,3.977047982e-06
0.01752083333,4.516331956e-06
0.01754166667,5.108321602e-06
0.0175625,5.854303708e-06
0.01758333333,6.75370211e-06
0.01760416667,7.751727026e-06
0.017625,8.736160453e-06
0.01764583333,9.504798982e-06
0.01766666667,1.005798276e-05
0.0176875,1.046291072e-05
0.01770833333,1.087338478e-05
0.01772916667,1.140167751e-05
0.01775,1.209346374e-05
0.01777083333,1.286691895e-05
0.01779166667,1.353380685e-05
0.0178125,1.409170454e-05
0.01783333333,1.443145447e-05
0.01785416667,1.471911219e-05
0.017875,1.497911762e-05
0.01789583333,1.533474097e-05
0.01791666667,1.576409159e-05
0.0179375,1.619582326e-05
0.01795833333,1.659072223e-05
0.01797916667,1.684196286e-05
0.018,1.693621198e-05
0.01802083333,1.687436816e-05
0.01804166667,1.666725439e-05
0.0180625,1.649210208e-05
0.01808333333,1.628232167e-05
0.01810416667,1.618258648e-05
0.018125,1.611764674e-05
0.01814583333,1.609973333e-05
0.01816666667,1.606525802e-05
0.0181875,1.590692591e-05
0.01820833333,1.562555371e-05
0.01822916667,1.522576895e-05
0.01825,1.476155194e-05
0.01827083333,1.423259255e-05
0.01829166667,1.374657677e-05
0.0183125,1.324033474e-05
0.01833333333,1.274944771e-05
0.01835416667,1.226571385e-05
0.018375,1.161551154e-05
0.01839583333,1.089460511e-05
0.01841666667,1.003409398e-05
0.0184375,9.100322131e-06
0.01845833333,8.22259517e-06
0.01847916667,7.459876088e-06
0.0185,6.892339115e-06
0.01852083333,6.346817827e-06
0.01854166667,5.751024219e-06
0.0185625,4.884333975e-06
0.01858333333,3.862624453e-06
0.01860416667,2.71723593e-06
0.018625,1.592257718e-06
0.01864583333,7.205504744e-07
0.01866666667,1.169509289e-08
0.0186875,-5.807326033e-07
0.01870833333,-1.289266038e-06
0.01872916667,-2.176066346e-06
0.01875,-3.293508144e-06
0.01877083333,-4.479375093e-06
0.01879166667,-5.593801689e-06
0.0188125,-6.587040843e-06
0.01883333333,-7.296086551e-06
0.01885416667,-7.944519893e-06
0.018875,-8.549021913e-06
0.01889583333,-9.222532753e-06
0.01891666667,-1.005201011e-05
0.0189375,-1.090421392e-05
0.01895833333,-1.179830724e-05
0.01897916667,-1.257563781e-05
0.019,-1.320811862e-05
0.01902083333,-1.364217133e-05
0.01904166667,-1.403563147e-05
0.0190625,-1.445852558e-05
0.01908333333,-1.498776419e-05
0.01910416667,-1.568347761e-05
0.019125,-1.643066389e-05
0.01914583333,-1.708787931e-05
0.01916666667,-1.748671275e-05
0.0191875,-1.762959255e-05
0.01920833333,-1.759733095e-05
0.01922916667,-1.747787246e-05
0.01925,-1.759073893e-05
0.01927083333,-1.785602944e-05
0.01929166667,-1.824749052e-05
0.0193125,-1.859594158e-05
0.01933333333,-1.865705599e-05
0.01935416667,-1.839765173e-05
0.019375,-1.789272574e-05
0.01939583333,-1.733651698e-05
0.01941666667,-1.693050217e-05
0.0194375,-1.681107096e-05
0.01945833333,-1.691684702e-05
0.01947916667,-1.703909766e-05
0.0195,-1.697066364e-05
0.01952083333,-1.650068225e-05
0.01954166667,-1.573305599e-05
0.0195625,-1.474356577e-05
0.01958333333,-1.385462565e-05
0.01960416667,-1.318669365e-05
0.019625,-1.27902349e-05
0.01964583333,-1.25136612e-05
0.01966666667,-1.20716104e-05
0.0196875,-1.139065807e-05
0.01970833333,-1.030037947e-05
0.01972916667,-9.030617548e-06
0.01975,-7.855264812e-06
0.01977083333,-6.919381576e-06
0.01979166667,-6.458407825e-06
0.0198125,-6.157496955e-06
0.01983333333,-5.796714504e-06
0.01985416667,-5.076437446e-06
0.019875,-3.849088444e-06
0.01989583333,-2.243605422e-06
0.01991666667,-6.260537475e-07
0.0199375,6.849950296e-07
0.01995833333,1.509576805e-06
0.01997916667,1.799901383e-06
0.02,1.543911594e-06
0.02002083333,2.072983534e-06
0.02004166667,3.041614036e-06
0.0200625,4.414667728e-06
0.02008333333,5.953088476e-06
0.02010416667,7.274765267e-06
0.020125,8.135073585e-06
0.02014583333,8.626716408e-06
0.02016666667,8.892493497e-06
0.0201875,9.438047528e-06
0.02020833333,1.042116673e-05
0.02022916667,1.166770289e-05
0.02025,1.301945849e-05
0.02027083333,1.399377197e-05
0.02029166667,1.445134239e-05
0.0203125,1.453037112e-05
0.02033333333,1.449693355e-05
0.02035416667,1.473850352e-05
0.020375,1.535966476e-05
0.02039583333,1.630575753e-05
0.02041666667,1.714524842e-05
0.0204375,1.779331797e-05
0.02045833333,1.804465865e-05
0.02047916667,1.790119495e-05
0.0205,1.762807369e-05
0.02052083333,1.73597291e-05
0.02054166667,1.728907409e-05
0.0205625,1.733486897e-05
0.02058333333,1.749463809e-05
0.02060416667,1.75013156e-05
0.020625,1.74261113e-05
0.02064583333,1.714979589e-05
0.02066666667,1.665235322e-05
0.0206875,1.628221435e-05
0.02070833333,1.590063039e-05
0.02072916667,1.575450733e-05
0.02075,1.569001142e-05
0.02077083333,1.553646871e-05
0.02079166667,1.525592961e-05
0.0208125,1.484597487e-05
0.02083333333,1.440441883e-05
0.02085416667,1.399684515e-05
0.020875,1.371892449e-05
0.02089583333,1.346315094e-05
0.02091666667,1.319158218e-05
0.0209375,1.284210339e-05
0.02095833333,1.235102263e-05
0.02097916667,1.165036883e-05
0.021,1.075538785e-05
0.02102083333,9.781915651e-06
0.02104166667,8.725673979e-06
0.0210625,7.840169019e-06
0.02108333333,6.913070592e-06
0.02110416667,6.055024642e-06
0.021125,5.308890195e-06
0.02114583333,4.424023246e-06
0.02116666667,3.396151442e-06
0.0211875,1.991032377e-06
0.02120833333,6.278963269e-07
0.02122916667,-6.46390788e-07
0.02125,-1.60250022e-06
0.02127083333,-2.168182846e-06
0.02129166667,-2.591838665e-06
0.0213125,-3.103159315e-06
0.02133333333,-3.841555099e-06
0.02135416667,-4.760445336e-06
0.021375,-5.776912531e-06
0.02139583333,-6.727909749e-06
0.02141666667,-7.58277838e-06
0.0214375,-8.25868301e-06
0.02145833333,-8.796856491e-06
0.02147916667,-9.460269212e-06
0.0215,-1.004076239e-05
0.02152083333,-1.066341338e-05
0.02154166667,-1.127711676e-05
0.0215625,-1.194726065e-05
0.02158333333,-1.276308012e-05
0.02160416667,-1.363904539e-05
0.021625,-1.444578902e-05
0.02164583333,-1.496861296e-05
0.02166666667,-1.531314228e-05
0.0216875,-1.530240843e-05
0.02170833333,-1.530744339e-05
0.02172916667,-1.530073496e-05
0.02175,-1.536681521e-05
0.02177083333,-1.527236782e-05
0.02179166667,-1.475378394e-05
0.0218125,-1.393766252e-05
0.02183333333,-1.305152728e-05
0.02185416667,-1.221437378e-05
0.021875,-1.184386565e-05
0.02189583333,-1.183191034e-05
0.02191666667,-1.217890167e-05
0.0219375,-1.281373443e-05
0.02195833333,-1.317237638e-05
0.02197916667,-1.334028275e-05
0.022,-1.322588105e-05
0.02202083333,-1.266572417e-05
0.02204166667,-1.197369238e-05
0.0220625,-1.140994937e-05
0.02208333333,-1.097427685e-05
0.02210416667,-1.092294679e-05
0.022125,-1.10789897e-05
0.02214583333,-1.090507067e-05
0.02216666667,-1.063466152e-05
0.0221875,-9.666639926e-06
0.02220833333,-8.232138498e-06
0.02222916667,-6.599033441e-06
0.02225,-5.052215784e-06
0.02227083333,-4.563906259e-06
0.02229166667,-5.111298378e-06
0.0223125,-6.324326932e-06
0.02233333333,-7.222986369e-06
0.02235416667,-7.154180821e-06
0.022375,-5.708388926e-06
0.02239583333,-3.127861646e-06
0.02241666667,-6.996489219e-07
0.0224375,6.630669986e-07
0.02245833333,5.808786909e-07
0.02247916667,-3.440181331e-07
0.0225,-8.344919706e-07
0.02252083333,-1.267276843e-07
0.02254166667,1.836525371e-06
0.0225625,4.347282811e-06
0.02258333333,6.768233561e-06
0.02260416667,8.590855941e-06
0.022625,9.754121493e-06
0.02264583333,1.066928598e-05
0.02266666667,1.168400922e-05
0.0226875,1.274443639e-05
0.02270833333,1.35911996e-05
0.02272916667,1.431818055e-05
0.02275,1.520785281e-05
0.02277083333,1.637322566e-05
0.02279166667,1.756440179e-05
0.0228125,1.82704207e-05
0.02283333333,1.827179585e-05
0.02285416667,1.722481284e-05
0.022875,1.564412196e-05
0.02289583333,1.454974245e-05
0.02291666667,1.431074452e-05
0.0229375,1.47867222e-05
0.02295833333,1.560275632e-05
0.02297916667,1.589439853e-05
0.023,1.549253102e-05
0.02302083333,1.468746996e-05
0.02304166667,1.408177832e-05
0.0230625,1.408729531e-05
0.02308333333,1.445923772e-05
0.02310416667,1.450491982e-05
0.023125,1.407219133e-05
0.02314583333,1.313805296e-05
0.02316666667,1.207830428e-05
0.0231875,1.107466142e-05
0.02320833333,1.115954365e-05
0.02322916667,1.132026046e-05
0.02325,1.143263216e-05
0.02327083333,1.089836951e-05
0.02329166667,9.918552678e-06
0.0233125,8.77711318e-06
0.02333333333,8.04715728e-06
0.02335416667,8.284734577e-06
0.023375,9.242326087e-06
0.02339583333,1.057326699e-05
0.02341666667,1.163468005e-05
0.0234375,1.218098896e-05
0.02345833333,1.215212615e-05
0.02347916667,1.150316166e-05
0.0235,1.066357981e-05
0.02352083333,9.228415365e-06
0.02354166667,7.658162758e-06
0.0235625,5.980218702e-06
0.02358333333,4.483891189e-06
0.02360416667,3.303129688e-06
0.023625,2.722677209e-06
0.02364583333,2.358545544e-06
0.02366666667,1.677904947e-06
0.0236875,5.295877372e-07
0.02370833333,-2.112371931e-06
0.02372916667,-4.949362847e-06
0.02375,-7.420440852e-06
0.02377083333,-8.877058463e-06
0.02379166667,-9.533947377e-06
0.0238125,-9.702327588e-06
0.02383333333,-1.100440204e-05
0.02385416667,-1.279620483e-05
0.023875,-1.459949544e-05
0.02389583333,-1.593704292e-05
0.02391666667,-1.597337723e-05
0.0239375,-1.558043914e-05
0.02395833333,-1.556284406e-05
0.02397916667,-1.64961948e-05
0.024,-1.816807344e-05
0.02402083333,-1.98585094e-05
0.02404166667,-2.059452163e-05
0.0240625,-2.047723683e-05
0.02408333333,-1.985584822e-05
0.02410416667,-1.920054456e-05
0.024125,-1.929627251e-05
0.02414583333,-1.980310481e-05
0.02416666667,-2.054153447e-05
0.0241875,-2.132398731e-05
0.02420833333,-2.201726602e-05
0.02422916667,-2.266639422e-05
0.02425,-2.282939749e-05
0.02427083333,-2.226420838e-05
0.02429166667,-2.097288598e-05
0.0243125,-1.957033965e-05
0.02433333333,-1.822949707e-05
0.02435416667,-1.7336577e-05
0.024375,-1.70975909e-05
0.02439583333,-1.690114732e-05
0.02441666667,-1.610874097e-05
0.0244375,-1.527544919e-05
0.02445833333,-1.464651632e-05
0.02447916667,-1.472107579e-05
0.0245,-1.54586578e-05
0.02452083333,-1.62683591e-05
0.02454166667,-1.583396443e-05
0.0245625,-1.508608148e-05
0.02458333333,-1.360741226e-05
0.02460416667,-1.204293949e-05
0.024625,-1.078071455e-05
0.02464583333,-1.020197487e-05
0.02466666667,-1.009186053e-05
0.0246875,-1.050321589e-05
0.02470833333,-1.139752112e-05
0.02472916667,-1.24658709e-05
0.02475,-1.326953043e-05
0.02477083333,-1.317868919e-05
0.02479166667,-1.286703991e-05
0.0248125,-1.263667582e-05
0.02483333333,-1.328744656e-05
0.02485416667,-1.499926111e-05
0.024875,-1.721318404e-05
0.02489583333,-1.837989475e-05
0.02491666667,-1.727837662e-05
0.0249375,-1.485453413e-05
0.02495833333,-1.096878077e-05
0.02497916667,-6.977035355e-06
0.025,-3.634766927e-06
0.02502083333,-6.094828677e-07
0.02504166667,1.430028192e-06
0.0250625,2.987458174e-06
0.02508333333,4.418781828e-06
0.02510416667,5.92131164e-06
0.025125,7.998114597e-06
0.02514583333,1.134242484e-05
0.02516666667,1.49449952e-05
0.0251875,1.778537626e-05
0.02520833333,1.989008524e-05
0.02522916667,1.990861711e-05
0.02525,2.053250137e-05
0.02527083333,2.163912905e-05
0.02529166667,2.318626139e-05
0.0253125,2.331597352e-05
0.02533333333,2.189738552e-05
0.02535416667,1.852095556e-05
0.025375,1.488852286e-05
0.02539583333,1.269544282e-05
0.02541666667,1.344701104e-05
0.0254375,1.554961455e-05
0.02545833333,1.867197534e-05
0.02547916667,1.915341454e-05
0.0255,1.780820821e-05
0.02552083333,1.488391899e-05
0.02554166667,1.288636577e-05
0.0255625,1.141353732e-05
0.02558333333,1.120284014e-05
0.02560416667,1.146155955e-05
0.025625,1.1410365e-05
0.02564583333,1.212353163e-05
0.02566666667,1.354332653e-05
0.0256875,1.520827027e-05
0.02570833333,1.550894922e-05
0.02572916667,1.300040094e-05
0.02575,9.349815628e-06
0.02577083333,6.232750366e-06
0.02579166667,5.851881269e-06
0.0258125,9.5286141e-06
0.02583333333,1.55177222e-05
0.02585416667,2.235096144e-05
0.025875,2.771967411e-05
0.02589583333,3.096472938e-05
0.02591666667,3.153538273e-05
0.0259375,3.066914724e-05
0.02595833333,3.051354543e-05
0.02597916667,2.968173976e-05
0.026,2.867822514e-05
0.02602083333,2.805625809e-05
0.02604166667,2.773782398e-05
0.0260625,2.624908302e-05
0.02608333333,2.454702371e-05
0.02610416667,2.201419011e-05
0.026125,2.001549547e-05
0.02614583333,1.77259717e-05
0.02616666667,1.618313217e-05
0.0261875,1.404536943e-05
0.02620833333,1.133798924e-05
0.02622916667,7.844734682e-06
0.02625,6.182877769e-06
0.02627083333,5.841394341e-06
0.02629166667,8.236388567e-06
0.0263125,9.889496141e-06
0.02633333333,1.127341966e-05
0.02635416667,9.618514014e-06
0.026375,8.113329386e-06
0.02639583333,7.334591828e-06
0.02641666667,9.294272786e-06
0.0264375,1.127893393e-05
0.02645833333,1.354958022e-05
0.02647916667,1.219125261e-05
0.0265,9.468709322e-06
0.02652083333,5.90298805e-06
0.02654166667,4.217394235e-06
0.0265625,3.426976946e-06
0.02658333333,2.59877379e-06
0.02660416667,-2.371862138e-07
0.026625,-4.760460797e-06
0.02664583333,-8.82886161e-06
0.02666666667,-9.428399608e-06
0.0266875,-7.508666386e-06
0.02670833333,-4.107725545e-06
0.02672916667,-2.567780029e-06
0.02675,-2.497805326e-06
0.02677083333,-2.114417839e-06
0.02679166667,2.639625563e-06
0.0268125,1.065855122e-05
0.02683333333,2.006300929e-05
0.02685416667,2.64154296e-05
0.026875,2.739790943e-05
0.02689583333,2.45631818e-05
0.02691666667,2.058965038e-05
0.0269375,1.768855509e-05
0.02695833333,1.678618355e-05
0.02697916667,1.400455221e-05
0.027,8.46853527e-06
0.02702083333,2.608227078e-06
0.02704166667,1.076933586e-06
0.0270625,3.04032983e-06
0.02708333333,9.837741345e-06
0.02710416667,1.539484037e-05
0.027125,1.800679092e-05
0.02714583333,1.543468716e-05
0.02716666667,1.120457637e-05
0.0271875,8.279216672e-06
0.02720833333,8.425337001e-06
0.02722916667,1.06018324e-05
0.02725,1.441512086e-05
0.02727083333,1.638831782e-05
0.02729166667,1.630539191e-05
0.0273125,1.133135629e-05
0.02733333333,3.320659289e-06
0.02735416667,-7.885084415e-06
0.027375,-1.695032734e-05
0.02739583333,-2.276110172e-05
0.02741666667,-2.182952085e-05
0.0274375,-1.729990436e-05
0.02745833333,-9.71136069e-06
0.02747916667,-4.392818482e-06
0.0275,1.006065986e-06
0.02752083333,5.216167665e-06
0.02754166667,1.235341733e-05
0.0275625,1.888855331e-05
0.02758333333,2.433168811e-05
0.02760416667,2.440448588e-05
0.027625,2.340089122e-05
0.02764583333,2.583989954e-05
0.02766666667,3.348673272e-05
0.0276875,4.343231194e-05
0.02770833333,5.070397674e-05
0.02772916667,5.061971751e-05
0.02775,4.388385423e-05
0.02777083333,3.421881411e-05
0.02779166667,2.867087278e-05
0.0278125,2.72109537e-05
0.02783333333,2.788045458e-05
0.02785416667,2.175705595e-05
0.027875,7.682878277e-06
0.02789583333,-8.375473953e-06
0.02791666667,-1.683435767e-05
0.0279375,-1.160615193e-05
0.02795833333,4.199673185e-06
0.02797916667,1.773256736e-05
0.028,2.052318086e-05
0.02802083333,1.418384272e-05
0.02804166667,2.183807737e-06
0.0280625,-6.057312021e-06
0.02808333333,-6.677579222e-06
0.02810416667,-3.651209227e-06
0.028125,1.075009095e-06
0.02814583333,2.790672625e-06
0.02816666667,3.941114755e-06
0.0281875,3.963385552e-06
0.02820833333,4.685480235e-07
0.02822916667,-1.067387257e-05
0.02825,-3.034883412e-05
0.02827083333,-5.060377953e-05
0.02829166667,-6.134185969e-05
0.0283125,-5.518766557e-05
0.02833333333,-3.315420327e-05
0.02835416667,-6.640316315e-06
0.028375,1.684216841e-05
0.02839583333,2.610186857e-05
0.02841666667,2.455638969e-05
0.0284375,1.386480835e-05
0.02845833333,4.693685696e-06
0.02847916667,3.006011866e-07
0.0285,1.935663477e-06
0.02852083333,4.01850275e-06
0.02854166667,1.987146106e-06
0.0285625,-4.363201242e-06
0.02858333333,-1.514945689e-05
0.02860416667,-2.90716016e-05
0.028625,-3.806431778e-05
0.02864583333,-3.915452908e-05
0.02866666667,-3.221636871e-05
0.0286875,-2.607362694e-05
0.02870833333,-2.819435576e-05
0.02872916667,-4.393901327e-05
0.02875,-6.773245696e-05
0.02877083333,-8.284827345e-05
0.02879166667,-8.653488476e-05
0.0288125,-7.498279592e-05
0.02883333333,-6.23251326e-05
0.02885416667,-5.826516281e-05
0.028875,-6.614198355e-05
0.02889583333,-7.838280726e-05
0.02891666667,-8.338368207e-05
0.0289375,-7.568208821e-05
0.02895833333,-6.148325338e-05
0.02897916667,-6.108570233e-05
0.029,-7.532442396e-05
0.02902083333,-8.815776528e-05
0.02904166667,-9.096130816e-05
0.0290625,-7.092425221e-05
0.02908333333,-4.805577919e-05
0.02910416667,-3.703795664e-05
0.029125,-5.93156401e-05
0.02914583333,-9.685285477e-05
0.02916666667,-0.0001289224747
0.0291875,-0.0001384725329
0.02920833333,-0.0001211471172
0.02922916667,-0.0001034527522
0.02925,-9.981333278e-05
0.02927083333,-0.0001136987557
0.02929166667,-0.0001294791582
0.0293125,-0.0001259748242
0.02933333333,-0.0001024062294
0.02935416667,-7.165659918e-05
0.029375,-6.528267841e-05
0.02939583333,-7.592450129e-05
0.02941666667,-8.59955544e-05
0.0294375,-7.871579874e-05
0.02945833333,-5.457610678e-05
0.02947916667,-4.724141399e-05
0.0295,-6.950859097e-05
0.02952083333,-0.0001256577525
0.02954166667,-0.0001801712788
0.0295625,-0.0001773047843
0.02958333333,-9.123959899e-05
0.02960416667,4.050996722e-05
0.029625,0.0001462439832
0.02964583333,0.0001674056402
0.02966666667,0.0001035892783
0.0296875,-4.487927526e-06
0.02970833333,-8.309356781e-05
0.02972916667,-0.0001127960495
0.02975,-9.417396359e-05
0.02977083333,-8.083919965e-05
0.02979166667,-7.196154911e-05
0.0298125,-6.717299402e-05
0.02983333333,-3.467487841e-05
0.02985416667,-7.571217793e-06
0.029875,-3.132096754e-05
0.02989583333,-0.0001316507696
0.02991666667,-0.000292465149
0.0299375,-0.0004450465494
0.02995833333,-0.0004356628633
0.02997916667,-0.0003228695132
0.03,0.0003389648627
0.03002083333,0.0004589075397
0.03004166667,0.0004751495435
0.0300625,0.0003269757435
0.03008333333,0.00016963284
0.03010416667,7.26129947e-05
0.030125,5.724114453e-05
0.03014583333,9.275890625e-05
0.03016666667,0.0001362599578
0.0301875,0.0001478279155
0.03020833333,0.0001643552096
0.03022916667,0.0001823130733
0.03025,0.0002077047102
0.03027083333,0.0001776122081
0.03029166667,9.45104257e-05
0.0303125,-2.637432954e-05
0.03033333333,-0.0001022339493
0.03035416667,-8.658619481e-05
0.030375,2.738302101e-05
0.03039583333,0.000174488101
0.03041666667,0.0002714662987
0.0304375,0.0002753905719
0.03045833333,0.0002089012123
0.03047916667,0.0001390198449
0.0305,0.0001090478036
0.03052083333,0.0001170813921
0.03054166667,0.000142845005
0.0305625,0.0001528727735
0.03058333333,0.0001369598031
0.03060416667,0.0001216097153
0.030625,0.0001285662584
0.03064583333,0.0001674020168
0.03066666667,0.0001991121826
0.0306875,0.0002064261498
0.03070833333,0.0001909325947
0.03072916667,0.0001749349613
0.03075,0.0001797066652
0.03077083333,0.0002035275975
0.03079166667,0.0002280858171
0.0308125,0.0002176176931
0.03083333333,0.0001762925822
0.03085416667,0.0001253611554
0.030875,9.580161714e-05
0.03089583333,0.000110721121
0.03091666667,0.0001450121927
0.0309375,0.0001712526137
0.03095833333,0.0001679391426
0.03097916667,0.0001496619661
0.031,0.0001237085962
0.03102083333,0.0001232476352
0.03104166667,0.0001438296313
0.0310625,0.0001620477124
0.03108333333,0.0001645247976
0.03110416667,0.0001524094841
0.031125,0.000145506172
0.03114583333,0.0001582771365
0.03116666667,0.000177469512
0.0311875,0.0001973395556
0.03120833333,0.0001928004058
0.03122916667,0.0001701839356
0.03125,0.0001361245377
0.03127083333,0.0001101238377
0.03129166667,0.0001057595946
0.0313125,0.0001142441906
0.03133333333,0.0001223848085
0.03135416667,0.0001189732793
0.031375,0.0001075263499
0.03139583333,8.685667126e-05
0.03141666667,6.778383249e-05
0.0314375,5.710244295e-05
0.03145833333,5.360050636e-05
0.03147916667,5.377271737e-05
0.0315,5.312245776e-05
0.03152083333,4.01512043e-05
0.03154166667,2.085668893e-05
0.0315625,-5.47899208e-06
0.03158333333,-1.367270397e-05
0.03160416667,-4.461226126e-06
0.031625,3.070381354e-05
0.03164583333,7.401497714e-05
0.03166666667,0.0001049292405
0.0316875,0.00011024384
0.03170833333,8.271940169e-05
0.03172916667,3.981813279e-05
0.03175,4.66873098e-06
0.03177083333,-6.385289453e-06
0.03179166667,-1.004517344e-06
0.0318125,1.294688263e-05
0.03183333333,2.115967072e-05
0.03185416667,2.88238025e-05
0.031875,4.197523958e-05
0.03189583333,5.005464845e-05
0.03191666667,5.422413597e-05
0.0319375,4.244283627e-05
0.03195833333,1.532793067e-05
0.03197916667,5.480050731e-06
0.032,1.05281797e-05
0.03202083333,4.177515802e-05
0.03204166667,7.659268158e-05
0.0320625,9.135109576e-05
0.03208333333,7.360496966e-05
0.03210416667,2.963231418e-05
0.032125,-1.293673267e-05
0.03214583333,-3.597322211e-05
0.03216666667,-4.010702105e-05
0.0321875,-4.488878767e-05
0.03220833333,-6.445337931e-05
0.03222916667,-9.508533549e-05
0.03225,-0.000114784074
0.03227083333,-0.0001257139229
0.03229166667,-0.0001097397399
0.0323125,-9.077254799e-05
0.03233333333,-7.777019346e-05
0.03235416667,-8.266150689e-05
0.032375,-8.833291213e-05
0.03239583333,-9.395914094e-05
0.03241666667,-8.118656115e-05
0.0324375,-6.282643153e-05
0.03245833333,-4.286187323e-05
0.03247916667,-3.339352043e-05
0.0325,-3.17072263e-05
0.03252083333,-3.053231558e-05
0.03254166667,-1.768503898e-05
0.0325625,-2.51050642e-06
0.03258333333,1.004099886e-05
0.03260416667,8.028259799e-06
0.032625,-1.224467451e-05
0.03264583333,-3.067806028e-05
0.03266666667,-4.62340613e-05
0.0326875,-5.340961434e-05
0.03270833333,-4.755011105e-05
0.03272916667,-3.607078906e-05
0.03275,-2.259209577e-05
0.03277083333,-1.355999484e-05
0.03279166667,-1.185924248e-05
0.0328125,-2.087237772e-05
0.03283333333,-3.424786701e-05
0.03285416667,-4.797912334e-05
0.032875,-5.9390768e-05
0.03289583333,-7.527072012e-05
0.03291666667,-7.353343244e-05
0.0329375,-8.68695206e-05
0.03295833333,-7.684779848e-05
0.03297916667,-7.696310058e-05
0.033,-5.663049524e-05
0.03302083333,-4.499028728e-05
0.03304166667,-4.297920168e-05
0.0330625,-5.652578693e-05
0.03308333333,-7.708952035e-05
0.03310416667,-9.712410247e-05
0.033125,-0.0001033606968
0.03314583333,-8.39313725e-05
0.03316666667,-5.296302334e-05
0.0331875,-2.867912372e-05
0.03320833333,-9.096612303e-06
0.03322916667,-1.149254422e-05
0.03325,-2.034531281e-05
0.03327083333,-3.482200555e-05
0.03329166667,-4.849859033e-05
0.0333125,-5.819970829e-05
0.03333333333,-7.298193668e-05
0.03335416667,-8.376981714e-05
0.033375,-8.285997319e-05
0.03339583333,-6.927758659e-05
0.03341666667,-5.896267976e-05
0.0334375,-5.270466136e-05
0.03345833333,-5.873327609e-05
0.03347916667,-6.855763786e-05
0.0335,-8.135117969e-05
0.03352083333,-7.859617472e-05
0.03354166667,-6.512554683e-05
0.0335625,-4.624334179e-05
0.03358333333,-3.131524136e-05
0.03360416667,-2.932764255e-05
0.033625,-2.773898086e-05
0.03364583333,-2.518839756e-05
0.03366666667,-1.542865539e-05
0.0336875,-1.703882845e-06
0.03370833333,8.866329154e-06
0.03372916667,9.606612366e-06
0.03375,4.353245458e-06
0.03377083333,-1.264894308e-05
0.03379166667,-1.907950718e-05
0.0338125,-3.520832252e-05
0.03383333333,-3.938072405e-05
0.03385416667,-6.0592316e-05
0.033875,-6.252019375e-05
0.03389583333,-6.002271402e-05
0.03391666667,-4.513995373e-05
0.0339375,-2.172556196e-05
0.03395833333,-2.955070613e-06
0.03397916667,-4.962980711e-06
0.034,-2.891938311e-05
0.03402083333,-5.90262207e-05
0.03404166667,-7.581070531e-05
0.0340625,-8.985358727e-05
0.03408333333,-9.235270409e-05
0.03410416667,-8.928857278e-05
0.034125,-6.156768359e-05
0.03414583333,-4.651361451e-05
0.03416666667,-2.550193312e-05
0.0341875,-6.807025329e-06
0.03420833333,-2.084761218e-05
0.03422916667,-2.123245395e-05
0.03425,-4.791303218e-05
0.03427083333,-4.682663712e-05
0.03429166667,-1.785173845e-05
0.0343125,6.083578046e-05
0.03433333333,0.000134179907
0.03435416667,0.0001771706156
0.034375,0.0001893566368
0.03439583333,0.0001762242027
0.03441666667,0.0001554658957
0.0344375,0.0001367081713
0.03445833333,0.0001188479146
0.03447916667,9.128849342e-05
0.0345,8.121356223e-05
0.03452083333,6.374562508e-05
0.03454166667,6.617714826e-05
0.0345625,6.340518303e-05
0.03458333333,6.368226605e-05
0.03460416667,5.776758917e-05
0.034625,3.893660323e-05
0.03464583333,1.876781243e-05
0.03466666667,6.328119071e-06
0.0346875,3.935531367e-06
0.03470833333,1.656091263e-05
0.03472916667,2.200946074e-05
0.03475,2.209330705e-05
0.03477083333,1.311580218e-05
0.03479166667,6.617636245e-06
0.0348125,1.181638709e-06
0.03483333333,4.658853868e-06
0.03485416667,9.104741366e-06
0.034875,6.089935596e-06
0.03489583333,-4.212881777e-06
0.03491666667,-1.594561218e-05
0.0349375,-1.65487254e-05
0.03495833333,-9.099902854e-06
0.03497916667,2.370848597e-05
0.035,5.398396388e-05
0.03502083333,7.94581938e-05
0.03504166667,7.818143786e-05
0.0350625,7.868270768e-05
0.03508333333,6.321158435e-05
0.03510416667,4.295664257e-05
0.035125,3.016835763e-05
0.03514583333,1.461575084e-05
0.03516666667,1.428678024e-05
0.0351875,1.636138768e-05
0.03520833333,1.295000402e-05
0.03522916667,2.824045805e-05
0.03525,4.704243474e-05
0.03527083333,4.513337626e-05
0.03529166667,4.33333953e-05
0.0353125,3.181849752e-05
0.03533333333,1.969899677e-05
0.03535416667,2.317343024e-05
0.035375,3.002349695e-05
0.03539583333,4.291981168e-05
0.03541666667,4.539345537e-05
0.0354375,3.142965943e-05
0.03545833333,6.316551662e-06
0.03547916667,-2.659830352e-05
0.0355,-4.342739703e-05
0.03552083333,-5.459765816e-05
0.03554166667,-5.401487215e-05
0.0355625,-5.937890455e-05
0.03558333333,-6.077284706e-05
0.03560416667,-6.147118256e-05
0.035625,-5.85282105e-05
0.03564583333,-4.250497659e-05
0.03566666667,-3.409222336e-05
0.0356875,-2.786689583e-05
0.03570833333,-3.23716813e-05
0.03572916667,-3.813950025e-05
0.03575,-4.088385322e-05
0.03577083333,-4.55630543e-05
0.03579166667,-4.120979065e-05
0.0358125,-4.401307524e-05
0.03583333333,-4.563721814e-05
0.03585416667,-6.092327749e-05
0.035875,-6.191946886e-05
0.03589583333,-5.566752225e-05
0.03591666667,-4.031793287e-05
0.0359375,-2.105808744e-05
0.03595833333,-1.371053077e-05
0.03597916667,-3.582061254e-06
0.036,4.152903784e-06
0.03602083333,6.419752026e-06
0.03604166667,1.324771256e-05
0.0360625,9.514009434e-06
0.03608333333,1.216521378e-05
0.03610416667,8.563947631e-07
0.036125,-4.888881449e-06
0.03614583333,-1.263053855e-05
0.03616666667,-1.948503632e-05
0.0361875,-9.612902431e-06
0.03620833333,-1.709860953e-05
0.03622916667,-2.742722609e-05
0.03625,-4.237928806e-05
0.03627083333,-6.521990144e-05
0.03629166667,-6.990990369e-05
0.0363125,-6.779292016e-05
0.03633333333,-5.915516522e-05
0.03635416667,-5.210342351e-05
0.036375,-5.809652794e-05
0.03639583333,-7.467882097e-05
0.03641666667,-0.0001055548637
0.0364375,-0.0001250519708
0.03645833333,-0.0001309598156
0.03647916667,-0.0001258651318
0.0365,-0.0001241041609
0.03652083333,-0.0001286678889
0.03654166667,-0.00013471274
0.0365625,-0.0001462513465
0.03658333333,-0.0001435018785
0.03660416667,-0.0001269124041
0.036625,-0.0001037591937
0.03664583333,-8.804014942e-05
0.03666666667,-7.984086551e-05
0.0366875,-9.62359918e-05
0.03670833333,-9.724106349e-05
0.03672916667,-9.352786583e-05
0.03675,-8.151432849e-05
0.03677083333,-6.424459571e-05
0.03679166667,-4.825328506e-05
0.0368125,-4.85677192e-05
0.03683333333,-4.215698209e-05
0.03685416667,-3.049048973e-05
0.036875,-2.766732723e-05
0.03689583333,-2.900529216e-05
0.03691666667,-2.949196823e-05
0.0369375,-4.6495079e-05
0.03695833333,-6.121346814e-05
0.03697916667,-7.291757356e-05
0.037,-7.658565301e-05
0.03702083333,-5.972360304e-05
0.03704166667,-7.073812594e-05
0.0370625,-8.591637743e-05
0.03708333333,-0.0001232763752
0.03710416667,-0.0001585914724
0.037125,-0.0001781075989
0.03714583333,-0.0001900347706
0.03716666667,-0.0001772725082
0.0371875,-0.0001607295708
0.03720833333,-0.000140267337
0.03722916667,-0.0001378836605
0.03725,-0.0001376269938
0.03727083333,-0.0001442508365
0.03729166667,-0.0001579108211
0.0373125,-0.0001696966501
0.03733333333,-0.0001841911289
0.03735416667,-0.0001882179931
0.037375,-0.0001847185777
0.03739583333,-0.0001788269001
0.03741666667,-0.0001617784001
0.0374375,-0.0001564891427
0.03745833333,-0.0001752452954
0.03747916667,-0.0001908425184
0.0375,-0.0002146102197
0.03752083333,-0.0002202877367
0.03754166667,-0.0002131868532
0.0375625,-0.0001887011167
0.03758333333,-0.0001579528907
0.03760416667,-0.0001432710851
0.037625,-0.000143941812
0.03764583333,-0.0001325314952
0.03766666667,-0.0001251079084
0.0376875,-0.0001128030417
0.03770833333,-0.0001188041206
0.03772916667,-0.0001223589206
0.03775,-0.0001069895807
0.03777083333,-8.476736548e-05
0.03779166667,-6.991282862e-05
0.0378125,-7.34636269e-05
0.03783333333,-8.959764091e-05
0.03785416667,-0.0001098832145
0.037875,-0.0001411431003
0.03789583333,-0.0001488145208
0.03791666667,-0.000155235175
0.0379375,-0.0001654265216
0.03795833333,-0.0001792907715
0.03797916667,-0.0001971645688
0.038,-0.0002082507417
0.03802083333,-0.0002256254957
0.03804166667,-0.0002247339871
0.0380625,-0.0002318214392
0.03808333333,-0.000237184664
0.03810416667,-0.0002461420372
0.038125,-0.0002477574162
0.03814583333,-0.0002251752885
0.03816666667,-0.0001873076981
0.0381875,-0.0001495147299
0.03820833333,-0.0001282663434
0.03822916667,-0.0001407936797
0.03825,-0.0001584311103
0.03827083333,-0.0001625073928
0.03829166667,-0.0001502375235
0.0383125,-0.0001301816956
0.03833333333,-0.0001064215903
0.03835416667,-9.303589468e-05
0.038375,-9.651358414e-05
0.03839583333,-0.0001031455322
0.03841666667,-9.595706069e-05
0.0384375,-8.268046804e-05
0.03845833333,-8.023145347e-05
0.03847916667,-8.013696061e-05
0.0385,-8.449045708e-05
0.03852083333,-9.222962399e-05
0.03854166667,-6.718236546e-05
0.0385625,-3.797456156e-05
0.03858333333,-2.222182775e-05
0.03860416667,-2.085255619e-05
0.038625,-4.21324221e-05
0.03864583333,-6.259715883e-05
0.03866666667,-7.635016664e-05
0.0386875,-6.34775206e-05
0.03870833333,-2.356312871e-05
0.03872916667,-5.947858881e-06
0.03875,1.642367351e-05
0.03877083333,7.507402188e-06
0.03879166667,-2.603955181e-06
0.0388125,-1.93057258e-05
0.03883333333,-3.481958265e-05
0.03885416667,-4.438217366e-05
0.038875,-6.230770668e-05
0.03889583333,-6.719361409e-05
0.03891666667,-7.626444858e-05
0.0389375,-7.128440484e-05
0.03895833333,-7.576580538e-05
0.03897916667,-0.0001009990956
0.039,-0.0001306870108
0.03902083333,-0.0001605561702
0.03904166667,-0.0001780789316
0.0390625,-0.0001851001871
0.03908333333,-0.0001696276449
0.03910416667,-0.000125244318
0.039125,-9.182452777e-05
0.03914583333,-4.310196164e-05
0.03916666667,-2.275366933e-05
0.0391875,-1.564741615e-05
0.03920833333,-9.33076808e-06
0.03922916667,-8.66069422e-06
0.03925,5.718225111e-06
0.03927083333,3.269851368e-05
0.03929166667,6.098474114e-05
0.0393125,9.130428953e-05
0.03933333333,0.0001018632611
0.03935416667,0.0001081264199
0.039375,0.0001060571594
0.03939583333,9.011069778e-05
0.03941666667,6.804290751e-05
0.0394375,4.574961713e-05
0.03945833333,2.884882997e-05
0.03947916667,1.371371945e-05
0.0395,7.322822057e-06
0.03952083333,-4.0897703e-06
0.03954166667,-5.550458809e-06
0.0395625,5.540261554e-06
0.03958333333,-8.552926374e-06
0.03960416667,-1.005394643e-05
0.039625,-1.670435995e-05
0.03964583333,-2.347242116e-05
0.03966666667,-2.345336907e-05
0.0396875,-1.987045289e-05
0.03970833333,-2.100666097e-05
0.03972916667,-2.060390216e-05
0.03975,-3.654667307e-05
0.03977083333,-4.591206016e-05
0.03979166667,-6.110387039e-05
0.0398125,-6.010782454e-05
0.03983333333,-5.757440886e-05
0.03985416667,-6.358027895e-05
0.039875,-6.813005166e-05
0.03989583333,-9.726846474e-05
0.03991666667,-0.0001138330917
0.0399375,-0.0001196789672
0.03995833333,-0.0001308981155
0.03997916667,-0.0001160758256
0.04,-9.909682558e-05
0.04002083333,-8.826224803e-05
0.04004166667,-3.848523193e-05
0.0400625,4.138339591e-06
0.04008333333,1.064950629e-05
0.04010416667,1.187559519e-05
0.040125,5.362068123e-07
0.04014583333,-3.882532383e-06
0.04016666667,1.250133209e-05
0.0401875,4.211856503e-05
0.04020833333,7.097691559e-05
0.04022916667,9.778827371e-05
0.04025,9.475860861e-05
0.04027083333,8.186294144e-05
0.04029166667,6.698193465e-05
0.0403125,6.084270717e-05
0.04033333333,4.17862575e-05
0.04035416667,1.848670036e-05
0.040375,-1.389352519e-06
0.04039583333,-2.156135815e-05
0.04041666667,-4.711376823e-05
0.0404375,-5.206061542e-05
0.04045833333,-6.673994358e-05
0.04047916667,-7.668841135e-05
0.0405,-0.000118490032
0.04052083333,-0.0001616981899
0.04054166667,-0.0002134256065
0.0405625,-0.0002537711116
0.04058333333,-0.0002633977274
0.04060416667,-0.0002633239783
0.040625,-0.0002445205755
0.04064583333,-0.0002330733842
0.04066666667,-0.0002316511091
0.0406875,-0.0002317418403
0.04070833333,-0.0002134535025
0.04072916667,-0.000206868659
0.04075,-0.0001912427979
0.04077083333,-0.0001717607229
0.04079166667,-0.0001556206407
0.0408125,-0.0001270774665
0.04083333333,-0.0001067186677
0.04085416667,-9.072576358e-05
0.040875,-8.392058226e-05
0.04089583333,-8.191638335e-05
0.04091666667,-7.297292177e-05
0.0409375,-7.722227019e-05
0.04095833333,-9.206150571e-05
0.04097916667,-9.014251555e-05
0.041,-9.977994341e-05
0.04102083333,-8.029680612e-05
0.04104166667,-6.005297109e-05
0.0410625,-4.940049621e-05
0.04108333333,-3.535329961e-05
0.04110416667,-4.220050687e-05
0.041125,-5.402861643e-05
0.04114583333,-5.229906674e-05
0.04116666667,-5.483639688e-05
0.0411875,-4.017516403e-05
0.04120833333,-4.154355702e-05
0.04122916667,-4.363603875e-05
0.04125,-6.894909893e-05
0.04127083333,-0.0001113835096
0.04129166667,-0.0001206187153
0.0413125,-0.0001323760371
0.04133333333,-0.0001468297705
0.04135416667,-0.0001698157866
0.041375,-0.0002049035393
0.04139583333,-0.0002108639892
0.04141666667,-0.0002127293119
0.0414375,-0.0001964849653
0.04145833333,-0.0001756713318
0.04147916667,-0.0001539170917
0.0415,-0.0001292529778
0.04152083333,-0.000135480499
0.04154166667,-0.000147325205
0.0415625,-0.0001485423854
0.04158333333,-0.0001393150742
0.04160416667,-0.0001122303729
0.041625,-0.0001029267223
0.04164583333,-9.201205103e-05
0.04166666667,-0.0001029132691
0.0416875,-0.0001230740454
0.04170833333,-0.0001303914178
0.04172916667,-0.0001317005081
0.04175,-0.0001136395731
0.04177083333,-9.829169721e-05
0.04179166667,-6.802001735e-05
0.0418125,-3.367139288e-05
0.04183333333,-1.717813757e-05
0.04185416667,-1.447308478e-06
0.041875,-3.264324505e-06
0.04189583333,-2.083918116e-05
0.04191666667,-4.492142762e-05
0.0419375,-6.503402983e-05
0.04195833333,-9.163166396e-05
0.04197916667,-8.456184878e-05
0.042,-9.154748841e-05
0.04202083333,-9.645297541e-05
0.04204166667,-0.0001294969843
0.0420625,-0.0001807140216
0.04208333333,-0.000224066549
0.04210416667,-0.0002536308893
0.042125,-0.0002722152276
0.04214583333,-0.0002774029563
0.04216666667,-0.0002812196908
0.0421875,-0.0002867779403
0.04220833333,-0.0003110204998
0.04222916667,-0.0003297028306
0.04225,-0.0003568171524
0.04227083333,-0.00038995879
0.04229166667,-0.0004105051339
0.0423125,-0.0004407172382
0.04233333333,-0.0004348263901
0.04235416667,-0.0004286522744
0.042375,-0.0004069293791
0.04239583333,-0.000402286154
0.04241666667,-0.0004165661521
0.0424375,-0.000429808133
0.04245833333,-0.0004445109807
0.04247916667,-0.0004308492644
0.0425,-0.0004054763704
0.04252083333,-0.0003598952899
0.04254166667,-0.0003194624733
0.0425625,-0.000282324705
0.04258333333,-0.0002577611885
0.04260416667,-0.0002552232472
0.042625,-0.0002517082612
0.04264583333,-0.0002609007352
0.04266666667,-0.0002704321232
0.0426875,-0.0002537705295
0.04270833333,-0.0002299089974
0.04272916667,-0.0001834719442
0.04275,-0.0001335560373
0.04277083333,-0.0001045769895
0.04279166667,-9.365029837e-05
0.0428125,-8.694002463e-05
0.04283333333,-8.251830877e-05
0.04285416667,-5.902007979e-05
0.042875,-2.496519119e-05
0.04289583333,2.496080924e-05
0.04291666667,8.595437248e-05
0.0429375,0.0001105815027
0.04295833333,0.00013807496
0.04297916667,0.0001536876662
0.043,0.0001406398369
0.04302083333,0.0001211514682
0.04304166667,7.356947026e-05
0.0430625,2.783874697e-05
0.04308333333,4.454474038e-06
0.04310416667,-4.85860528e-06
0.043125,-3.510560418e-06
0.04314583333,8.958522812e-07
0.04316666667,-3.476920028e-06
0.0431875,-2.370922448e-05
0.04320833333,-6.129636313e-05
0.04322916667,-8.323015936e-05
0.04325,-6.299483357e-05
0.04327083333,4.395213182e-06
0.04329166667,8.903270646e-05
0.0433125,0.0001421797497
0.04333333333,0.0001533216564
0.04335416667,0.0001562165562
0.043375,0.0001557563664
0.04339583333,0.0001884318626
0.04341666667,0.0002270893601
0.0434375,0.0002681230835
0.04345833333,0.0002812063904
0.04347916667,0.0002905148722
0.0435,0.0002868382435
0.04352083333,0.0002772846492
0.04354166667,0.0002704509825
0.0435625,0.0002629397204
0.04358333333,0.0002482015116
0.04360416667,0.0002293278085
0.043625,0.0002341256477
0.04364583333,0.0002659840975
0.04366666667,0.000305635127
0.0436875,0.0003411135403
0.04370833333,0.0003578458854
0.04372916667,0.000332614698
0.04375,0.0003039951262
0.04377083333,0.0002763227094
0.04379166667,0.000251355872
0.0438125,0.0002443394042
0.04383333333,0.0002358368802
0.04385416667,0.0002211363171
0.043875,0.0001983268885
0.04389583333,0.0001872162538
0.04391666667,0.0001856865856
0.0439375,0.000189655897
0.04395833333,0.0002057114762
0.04397916667,0.0002129803033
0.044,0.0001913407614
0.04402083333,0.0001650972263
0.04404166667,0.0001463552471
0.0440625,0.0001220120903
0.04408333333,8.412167517e-05
0.04410416667,1.213725409e-05
0.044125,-8.791545406e-05
0.04414583333,-0.0001672928192
0.04416666667,-0.0002145608014
0.0441875,-0.0002233127307
0.04420833333,-0.000188778562
0.04422916667,-0.0001477782353
0.04425,-0.0001245161693
0.04427083333,-6.045997725e-05
0.04429166667,6.322826812e-05
0.0443125,0.0002963601437
0.04433333333,0.0006243496318
0.04435416667,0.0008903016569
0.044375,0.001096530468
0.04439583333,0.001232750132
0.04441666667,0.001306757098
0.0444375,0.001352339517
0.04445833333,0.001367197838
0.04447916667,0.001363653108
0.0445,0.00131556124
0.04452083333,0.001225131913
0.04454166667,0.001092866994
0.0445625,0.0009580426267
0.04458333333,0.0008267560042
0.04460416667,0.0007096959162
0.044625,0.0005928411847
0.04464583333,0.0004969926085
0.04466666667,0.0004155759525
0.0446875,0.0003685526899
0.04470833333,0.0003451075463
0.04472916667,0.0003504425113
0.04475,0.0003659691429
0.04477083333,0.0003681530361
0.04479166667,0.000362131861
0.0448125,0.0003511030809
0.04483333333,0.000347555324
0.04485416667,0.0003481418826
0.044875,0.0003446575138
0.04489583333,0.0003501042374
0.04491666667,0.0003398900444
0.0449375,0.0003322157136
0.04495833333,0.0003302437544
0.04497916667,0.0003298332449
0.045,0.0003212064039
0.04502083333,0.000305496651
0.04504166667,0.000284689304
0.0450625,0.0002730372362
0.04508333333,0.0002617668069
0.04510416667,0.0002589824726
0.045125,0.0002424801205
0.04514583333,0.0002202347823
0.04516666667,0.0001772063843
0.0451875,0.0001372070401
0.04520833333,0.0001139564774
0.04522916667,0.0001154429192
0.04525,0.0001304809848
0.04527083333,0.0001493906602
0.04529166667,0.000147042505
0.0453125,0.0001421299094
0.04533333333,0.0001201895939
0.04535416667,0.0001092690945
0.045375,0.0001055638641
0.04539583333,0.0001264300663
0.04541666667,0.0001515897457
0.0454375,0.0001847344101
0.04545833333,0.0001987468422
0.04547916667,0.0001991138997
0.0455,0.0001920206705
0.04552083333,0.0001960381778
0.04554166667,0.0002061213308
0.0455625,0.0002117619442
0.04558333333,0.0002056420926
0.04560416667,0.0002048136375
0.045625,0.0002015501668
0.04564583333,0.0002089777263
0.04566666667,0.000202213967
0.0456875,0.0001988393487
0.04570833333,0.0001600940886
0.04572916667,0.0001098480134
0.04575,5.241574036e-05
0.04577083333,1.490228169e-05
0.04579166667,-5.053145287e-06
0.0458125,-1.25127408e-05
0.04583333333,-1.088581485e-05
0.04585416667,-1.071554289e-05
0.045875,-7.294831448e-06
0.04589583333,1.094938489e-05
0.04591666667,4.651791096e-05
0.0459375,0.0001048569393
0.04595833333,0.0001692040096
0.04597916667,0.000236568696
0.046,0.0002925722802
0.04602083333,0.0003363142023
0.04604166667,0.000357724668
0.0460625,0.0003647999256
0.04608333333,0.0003729801392
0.04610416667,0.0003770775511
0.046125,0.0003813682997
0.04614583333,0.0003879003634
0.04616666667,0.0003875062685
0.0461875,0.0003846859618
0.04620833333,0.0003704409464
0.04622916667,0.0003407730255
0.04625,0.000307920971
0.04627083333,0.000270989316
0.04629166667,0.000233308092
0.0463125,0.0001984331757
0.04633333333,0.0001638330432
0.04635416667,0.0001094542604
0.046375,5.178258652e-05
0.04639583333,-1.568035805e-05
0.04641666667,-9.020133439e-05
0.0464375,-0.0001523903338
0.04645833333,-0.0002210063685
0.04647916667,-0.0002678004676
0.0465,-0.0003038713476
0.04652083333,-0.0003154526348
0.04654166667,-0.000302426226
0.0465625,-0.0002663341293
0.04658333333,-0.0002315416496
0.04660416667,-0.0001999195229
0.046625,-0.0001953281317
0.04664583333,-0.0001918471535
0.04666666667,-0.0001906512334
0.0466875,-0.0001735485421
0.04670833333,-0.0001564817794
0.04672916667,-0.0001391764381
0.04675,-0.0001202622152
0.04677083333,-0.0001093304454
0.04679166667,-9.949654486e-05
0.0468125,-7.286420441e-05
0.04683333333,-3.334064968e-05
0.04685416667,1.018037437e-05
0.046875,5.004483319e-05
0.04689583333,8.677214646e-05
0.04691666667,0.0001146181385
0.0469375,0.0001396343432
0.04695833333,0.0001725351322
0.04697916667,0.0002017183579
0.047,0.0002183356555
0.04702083333,0.0002171321539
0.04704166667,0.0001990132296
0.0470625,0.0001923940144
0.04708333333,0.000191320607
0.04710416667,0.0001943009993
0.047125,0.0002039351384
0.04714583333,0.0002060812694
0.04716666667,0.0001923102973
0.0471875,0.0001761995954
0.04720833333,0.0001625046862
0.04722916667,0.0001725969196
0.04725,0.0001793860574
0.04727083333,0.0001694826351
0.04729166667,0.0001346975623
0.0473125,8.581599104e-05
0.04733333333,3.837144322e-05
0.04735416667,1.405189687e-05
0.047375,1.554338814e-05
0.04739583333,4.568640725e-05
0.04741666667,7.665209705e-05
0.0474375,0.0001150006719
0.04745833333,0.000143339872
0.04747916667,0.0001712397498
0.0475,0.0002009770251
0.04752083333,0.0002358882339
0.04754166667,0.0002784146345
0.0475625,0.0003193506273
0.04758333333,0.0003472906828
0.04760416667,0.000363033847
0.047625,0.0003698509245
0.04764583333,0.000377257762
0.04766666667,0.0003761838307
0.0476875,0.000389002118
0.04770833333,0.0003941991017
0.04772916667,0.000395537063
0.04775,0.000384218496
0.04777083333,0.0003750945907
0.04779166667,0.0003692956525
0.0478125,0.0003860596335
0.04783333333,0.0004146331921
0.04785416667,0.0004508358252
0.047875,0.0004749364161
0.04789583333,0.0004768781073
0.04791666667,0.0004549553269
0.0479375,0.0004420974292
0.04795833333,0.0004407410161
0.04797916667,0.0004501075891
0.048,0.000457281014
0.04802083333,0.0004476117902
0.04804166667,0.0004159870441
0.0480625,0.0003726377035
0.04808333333,0.0003255884512
0.04810416667,0.0002890343312
0.048125,0.0002707868698
0.04814583333,0.0002741726348
0.04816666667,0.0002796690969
0.0481875,0.0002922397107
0.04820833333,0.0003017583804
0.04822916667,0.0003053543624
0.04825,0.0003009374486
0.04827083333,0.0002987640037
0.04829166667,0.000296849641
0.0483125,0.0003021357697
0.04833333333,0.0003029144718
0.04835416667,0.0003076375287
0.048375,0.0002983999439
0.04839583333,0.0002814134932
0.04841666667,0.0002718826872
0.0484375,0.00027591447
0.04845833333,0.0003059358278
0.04847916667,0.0003533201234
0.0485,0.0003931738029
0.04852083333,0.0004327937204
0.04854166667,0.0004419591278
0.0485625,0.0004491835134
0.04858333333,0.0004522587988
0.04860416667,0.0004588814336
0.048625,0.0004712678783
0.04864583333,0.0004820455797
0.04866666667,0.0004733885871
0.0486875,0.0004613492638
0.04870833333,0.0004403417697
0.04872916667,0.0004230772029
0.04875,0.0004032135475
0.04877083333,0.0003836628457
0.04879166667,0.0003487741342
0.0488125,0.0003224321699
0.04883333333,0.0003024199395
0.04885416667,0.0003034587135
0.048875,0.0003166605602
0.04889583333,0.0003323643759
0.04891666667,0.000333950913
0.0489375,0.0003204583772
0.04895833333,0.0002910731127
0.04897916667,0.0002544626186
0.049,0.0002235402062
0.04902083333,0.0001965425472
0.04904166667,0.0001772335963
0.0490625,0.0001630357583
0.04908333333,0.000146674327
0.04910416667,0.0001519456273
0.049125,0.0001613025961
0.04914583333,0.0001852613204
0.04916666667,0.0002071089693
0.0491875,0.0002273694554
0.04920833333,0.0002272449929
0.04922916667,0.000236075517
0.04925,0.0002614855184
0.04927083333,0.0003137093445
0.04929166667,0.0003772634082
0.0493125,0.0004357671423
0.04933333333,0.0004706181644
0.04935416667,0.0005009026499
0.049375,0.0005076300586
0.04939583333,0.0005318413023
0.04941666667,0.0005502711283
0.0494375,0.0005724853836
0.04945833333,0.0005830685841
0.04947916667,0.0005921734846
0.0495,0.0006068789517
0.04952083333,0.0006273435429
0.04954166667,0.0006452701637
0.0495625,0.0006480300799
0.04958333333,0.000623475411
0.04960416667,0.0005777209299
0.049625,0.0005261803744
0.04964583333,0.0004900661297
0.04966666667,0.0004825569922
0.0496875,0.0004875034501
0.04970833333,0.0004867828102
0.04972916667,0.0004717460833
0.04975,0.0004407357192
0.04977083333,0.000411144516
0.04979166667,0.0003894469701
0.0498125,0.0003897837596
0.04983333333,0.0004005804658
0.04985416667,0.0004212953791
0.049875,0.0004353648983
0.04989583333,0.0004573960905
0.04991666667,0.0004697966506
0.0499375,0.0004873090074
0.04995833333,0.0004883552901
0.04997916667,0.0004866619711
0.05,0.000472172891
0.05002083333,0.0004565313866
0.05004166667,0.0004441800411
0.0500625,0.0004393651325
0.05008333333,0.00043577014
0.05010416667,0.0004363392945
0.050125,0.0004427013919
0.05014583333,0.0004547756398
0.05016666667,0.0004536224878
0.0501875,0.0004473206063
0.05020833333,0.0004309834912
0.05022916667,0.0004215065856
0.05025,0.0004203766875
0.05027083333,0.0004257335677
0.05029166667,0.0004408672976
0.0503125,0.0004536570341
0.05033333333,0.0004498719936
0.05035416667,0.0004335165431
0.050375,0.0004001442576
0.05039583333,0.0003666100674
0.05041666667,0.0003315059002
0.0504375,0.0003123013885
0.05045833333,0.0002905186848
0.05047916667,0.0002708623942
0.0505,0.0002581437293
0.05052083333,0.0002516807581
0.05054166667,0.0002407945285
0.0505625,0.0002249516256
0.05058333333,0.0001983507973
0.05060416667,0.0001686891046
0.050625,0.0001364032069
0.05064583333,0.0001174116769
0.05066666667,0.0001022258803
0.0506875,9.697934001e-05
0.05070833333,9.121572657e-05
0.05072916667,7.998280489e-05
0.05075,5.428458826e-05
0.05077083333,3.031566303e-05
0.05079166667,2.023394927e-06
0.0508125,-2.362081614e-05
0.05083333333,-5.642728502e-05
0.05085416667,-8.65047914e-05
0.050875,-0.0001135718121
0.05089583333,-0.0001213331561
0.05091666667,-0.0001147065632
0.0509375,-9.258017235e-05
0.05095833333,-6.81367892e-05
0.05097916667,-4.435469964e-05
0.051,-3.242570165e-05
0.05102083333,-2.903501991e-05
0.05104166667,-1.481574509e-05
0.0510625,1.146579052e-05
0.05108333333,4.545061529e-05
0.05110416667,7.279099373e-05
0.051125,7.426623051e-05
0.05114583333,6.696889614e-05
0.05116666667,5.398443682e-05
0.0511875,6.278946239e-05
0.05120833333,7.481889043e-05
0.05122916667,8.394939505e-05
0.05125,7.685553282e-05
0.05127083333,5.726853487e-05
0.05129166667,3.796540113e-05
0.0513125,3.347461097e-05
0.05133333333,5.170821896e-05
0.05135416667,6.896697596e-05
0.051375,6.041159577e-05
0.05139583333,3.733835911e-05
0.05141666667,6.279291824e-07
0.0514375,-1.756913844e-05
0.05145833333,-1.957586755e-05
0.05147916667,-1.632275234e-05
0.0515,-2.314443191e-05
0.05152083333,-5.69806798e-05
0.05154166667,-8.977203106e-05
0.0515625,-9.792998753e-05
0.05158333333,-8.287335368e-05
0.05160416667,-3.488838411e-05
0.051625,-1.661620331e-06
0.05164583333,8.98140479e-06
0.05166666667,3.815173841e-06
0.0516875,-5.482358119e-06
0.05170833333,2.117421718e-05
0.05172916667,7.120721421e-05
0.05175,0.0001152126642
0.05177083333,0.0001427059033
0.05179166667,0.0001462573709
0.0518125,0.0001372346305
0.05183333333,0.0001522051898
0.05185416667,0.0001940375951
0.051875,0.000246054231
0.05189583333,0.0002893188503
0.05191666667,0.0003062496544
0.0519375,0.0003118676832
0.05195833333,0.0003126639931
0.05197916667,0.0003411509388
0.052,0.0003917953873
0.05202083333,0.0004498154449
0.05204166667,0.0005019930541
0.0520625,0.0005382829113
0.05208333333,0.0005601815064
0.05210416667,0.0005802230444
0.052125,0.0005939765833
0.05214583333,0.00060426048
0.05216666667,0.0006005848409
0.0521875,0.0005849666777
0.05220833333,0.0005574429524
0.05222916667,0.0005350455758
0.05225,0.0004973718314
0.05227083333,0.0004583594564
0.05229166667,0.0003966695222
0.0523125,0.0003184472152
0.05233333333,0.0002495600202
0.05235416667,0.0001914010354
0.052375,0.000173374181
0.05239583333,0.0001539980149
0.05241666667,0.0001264594903
0.0524375,8.444426203e-05
0.05245833333,2.195372326e-05
0.05247916667,-1.596782386e-05
0.0525,-4.268890189e-05
0.05252083333,-2.583109199e-05
0.05254166667,-1.390322086e-05
0.0525625,-2.563497401e-05
0.05258333333,-3.580252451e-05
0.05260416667,-3.679673682e-05
0.052625,-7.765242117e-06
0.05264583333,2.8245664e-05
0.05266666667,6.39875143e-05
0.0526875,6.678351201e-05
0.05270833333,3.044325422e-05
0.05272916667,-1.554683695e-05
0.05275,-4.859327964e-05
0.05277083333,-5.249963942e-05
0.05279166667,-5.920420517e-05
0.0528125,-7.572157483e-05
0.05283333333,-0.0001292701345
0.05285416667,-0.0001989749435
0.052875,-0.0002531816426
0.05289583333,-0.0002935800585
0.05291666667,-0.000318552542
0.0529375,-0.0003413668019
0.05295833333,-0.0003580909106
0.05297916667,-0.0003737331135
0.053,-0.0003714032064
0.05302083333,-0.000345003471
0.05304166667,-0.0002978680131
0.0530625,-0.0002518858528
0.05308333333,-0.0002293216821
0.05310416667,-0.0002224975906
0.053125,-0.0002439101081
0.05314583333,-0.0002655603748
0.05316666667,-0.0002871234901
0.0531875,-0.0003066067293
0.05320833333,-0.0003176818136
0.05322916667,-0.0003393211227
0.05325,-0.000345895387
0.05327083333,-0.0003567158419
0.05329166667,-0.0003487823415
0.0533125,-0.0003375640081
0.05333333333,-0.0003506494104
0.05335416667,-0.0003678403154
0.053375,-0.0004091115843
0.05339583333,-0.0004455812741
0.05341666667,-0.0004988721921
0.0534375,-0.0005489639589
0.05345833333,-0.0005819128128
0.05347916667,-0.0005956727546
0.0535,-0.0006002341397
0.05352083333,-0.000594414596
0.05354166667,-0.0005865446292
0.0535625,-0.0005619695294
0.05358333333,-0.0005136774853
0.05360416667,-0.0004698268312
0.053625,-0.0004319418513
0.05364583333,-0.0004019762273
0.05366666667,-0.0003744859714
0.0536875,-0.0003194624151
0.05370833333,-0.0002669723181
0.05372916667,-0.0002242404735
0.05375,-0.0001962924725
0.05377083333,-0.0002005291317
0.05379166667,-0.0002154072572
0.0538125,-0.0002251733968
0.05383333333,-0.0002184838377
0.05385416667,-0.0002053506614
0.053875,-0.0002028433955
0.05389583333,-0.0002245804935
0.05391666667,-0.0002730913984
0.0539375,-0.0003259887162
0.05395833333,-0.0003593992442
0.05397916667,-0.0003762988199
0.054,-0.0003797527752
0.05402083333,-0.0003881411685
0.05404166667,-0.0004054599849
0.0540625,-0.0004181492841
0.05408333333,-0.000415195449
0.05410416667,-0.0003726292925
0.054125,-0.0003193544399
0.05414583333,-0.0002643890039
0.05416666667,-0.0002308485855
0.0541875,-0.0002104858286
0.05420833333,-0.0001828201348
0.05422916667,-0.0001341628667
0.05425,-7.633048517e-05
0.05427083333,-3.366354213e-05
0.05429166667,-1.874976442e-05
0.0543125,-3.290165841e-05
0.05433333333,-4.819137393e-05
0.05435416667,-7.182875561e-05
0.054375,-0.0001014640075
0.05439583333,-0.0001272190857
0.05441666667,-0.0001527515124
0.0544375,-0.0001571048051
0.05445833333,-0.0001322847529
0.05447916667,-6.732356269e-05
0.0545,3.8301514e-05
0.05452083333,0.0001520017104
0.05454166667,0.0002300393826
0.0545625,0.0002947963949
0.05458333333,0.0003353746142
0.05460416667,0.0003584013903
0.054625,0.0003818044497
0.05464583333,0.0003907032951
0.05466666667,0.0003819098347
0.0546875,0.0003511559044
0.05470833333,0.0003056483401
0.05472916667,0.0002525025047
0.05475,0.0001991257741
0.05477083333,0.0001584004203
0.05479166667,0.0001187310263
0.0548125,8.922633424e-05
0.05483333333,4.34197209e-05
0.05485416667,-1.324284312e-05
0.054875,-6.419086276e-05
0.05489583333,-7.629864558e-05
0.05491666667,-5.548748231e-05
0.0549375,-5.002524267e-05
0.05495833333,-5.049853644e-05
0.05497916667,-7.475093298e-05
0.055,-0.0001151983088
0.05502083333,-0.0001579878153
0.05504166667,-0.0002065627486
0.0550625,-0.0002526071621
0.05508333333,-0.0002857852378
0.05510416667,-0.0003072557738
0.055125,-0.0003357076494
0.05514583333,-0.0003655946057
0.05516666667,-0.0003960467293
0.0551875,-0.0004117327626
0.05520833333,-0.0004142363323
0.05522916667,-0.0004209476756
0.05525,-0.0004481631331
0.05527083333,-0.0004876375024
0.05529166667,-0.0005260646576
0.0553125,-0.0005643438781
0.05533333333,-0.0006142499624
0.05535416667,-0.0006630429416
0.055375,-0.0007031054702
0.05539583333,-0.0007313002134
0.05541666667,-0.0007666151505
0.0554375,-0.0008260169998
0.05545833333,-0.000867488503
0.05547916667,-0.0008706135559
0.0555,-0.0008675415884
0.05552083333,-0.0008589260979
0.05554166667,-0.0008613669197
0.0555625,-0.0008709523245
0.05558333333,-0.0008859495283
0.05560416667,-0.0009137898451
0.055625,-0.0009218169143
0.05564583333,-0.0009162834613
0.05566666667,-0.0009091966203
0.0556875,-0.0009075583075
0.05570833333,-0.000911877607
0.05572916667,-0.0009100599564
0.05575,-0.0008735143347
0.05577083333,-0.0008254485438
0.05579166667,-0.0007871190901
0.0558125,-0.0007612326299
0.05583333333,-0.0007662546705
0.05585416667,-0.000766880461
0.055875,-0.0007560170488
0.05589583333,-0.0007435319712
0.05591666667,-0.0007383751217
0.0559375,-0.0007515884936
0.05595833333,-0.0007726715412
0.05597916667,-0.0007964603137
0.056,-0.0008061834378
0.05602083333,-0.000803962932
0.05604166667,-0.0007808014634
0.0560625,-0.000760279072
0.05608333333,-0.0007628024905
0.05610416667,-0.0007586675929
0.056125,-0.0007374169654
0.05614583333,-0.0006766129518
0.05616666667,-0.0006085759378
0.0561875,-0.0005654205452
0.05620833333,-0.0005446824362
0.05622916667,-0.0005515915691
0.05625,-0.0005368798156
0.05627083333,-0.000503587944
0.05629166667,-0.0004597912775
0.0563125,-0.0004043329391
0.05633333333,-0.000366938184
0.05635416667,-0.0003326701699
0.056375,-0.0003144829534
0.05639583333,-0.0002976278192
0.05641666667,-0.0002814950712
0.0564375,-0.0002661565377
0.05645833333,-0.0002676368167
0.05647916667,-0.0002925730951
0.0565,-0.0003088702797
0.05652083333,-0.0003263776598
0.05654166667,-0.0003369941842
0.0565625,-0.000346013403
0.05658333333,-0.0003515862336
0.05660416667,-0.000357307028
0.056625,-0.0003665663826
0.05664583333,-0.0003803555446
0.05666666667,-0.0003974517167
0.0566875,-0.0003912264074
0.05670833333,-0.0003911428212
0.05672916667,-0.0003903640027
0.05675,-0.0003975752916
0.05677083333,-0.0004061150539
0.05679166667,-0.0003937998845
0.0568125,-0.0003754095524
0.05683333333,-0.0003515631252
0.05685416667,-0.0003544902138
0.056875,-0.0003704504052
0.05689583333,-0.0003689847072
0.05691666667,-0.0003601674689
0.0569375,-0.0003303011181
0.05695833333,-0.0003015488037
0.05697916667,-0.0002731076383
0.057,-0.0002566531766
0.05702083333,-0.0002558136475
0.05704166667,-0.0002519756672
0.0570625,-0.000260375411
0.05708333333,-0.0002747405379
0.05710416667,-0.0003032161621
0.057125,-0.0003630553256
0.05714583333,-0.0004230857594
0.05716666667,-0.0004573429469
0.0571875,-0.0004730582295
0.05720833333,-0.0004645103472
0.05722916667,-0.0004490890424
0.05725,-0.0004501492949
0.05727083333,-0.0004568536824
0.05729166667,-0.0004737975542
0.0573125,-0.000473232707
0.05733333333,-0.0004693213559
0.05735416667,-0.000477945985
0.057375,-0.0004994975752
0.05739583333,-0.0005341983633
0.05741666667,-0.0005630450323
0.0574375,-0.0005869564484
0.05745833333,-0.0006009411882
0.05747916667,-0.0006234485772
0.0575,-0.0006424316089
0.05752083333,-0.0006469945656
0.05754166667,-0.0006709679728
0.0575625,-0.0006810296327
0.05758333333,-0.0006980130565
0.05760416667,-0.0007158057997
0.057625,-0.0007270684
0.05764583333,-0.0007368247607
0.05766666667,-0.0007347788196
0.0576875,-0.0007257087855
0.05770833333,-0.0007086659898
0.05772916667,-0.0006897542626
0.05775,-0.0006622153451
0.05777083333,-0.0006629140116
0.05779166667,-0.0006861889851
0.0578125,-0.0006933728
0.05783333333,-0.0007140618982
0.05785416667,-0.0007201280678
0.057875,-0.0007472055149
0.05789583333,-0.0007968515856
0.05791666667,-0.0008249514503
0.0579375,-0.0008370539872
0.05795833333,-0.0008227126673
0.05797916667,-0.0007991879247
0.058,-0.0007769520162
0.05802083333,-0.0007658154354
0.05804166667,-0.0007694634842
0.0580625,-0.0007546975394
0.05808333333,-0.000714469119
0.05810416667,-0.0006450568908
0.058125,-0.0005757930921
0.05814583333,-0.0005271810223
0.05816666667,-0.0004935716861
0.0581875,-0.0004886563402
0.05820833333,-0.0004836759763
0.05822916667,-0.0004761118616
0.05825,-0.0004694972886
0.05827083333,-0.0004367752699
0.05829166667,-0.0004249985213
0.0583125,-0.0004251657811
0.05833333333,-0.0004166108265
0.05835416667,-0.0004085143155
0.058375,-0.0003833946248
0.05839583333,-0.0003643553646
0.05841666667,-0.0003539931495
0.0584375,-0.0003583570069
0.05845833333,-0.0003750919714
0.05847916667,-0.0003887340135
0.0585,-0.0003708108852
0.05852083333,-0.000341267325
0.05854166667,-0.0003333702916
0.0585625,-0.0003428968193
0.05858333333,-0.0003771282209
0.05860416667,-0.000398479373
0.058625,-0.0004110274895
0.05864583333,-0.0004051032884
0.05866666667,-0.0003717992222
0.0586875,-0.0003323304118
0.05870833333,-0.0002838697401
0.05872916667,-0.0002480050025
0.05875,-0.0002205297496
0.05877083333,-0.0001833987189
0.05879166667,-0.0001416987798
0.0588125,-0.0001260858116
0.05883333333,-0.0001338287693
0.05885416667,-0.0001496985933
0.058875,-0.000158068302
0.05889583333,-0.0001646914607
0.05891666667,-0.0001749817166
0.0589375,-0.0001900264324
0.05895833333,-0.0002241811599
0.05897916667,-0.0002576891857
0.059,-0.0003048960352
0.05902083333,-0.0003493053373
0.05904166667,-0.0003567830136
0.0590625,-0.0003674356267
0.05908333333,-0.0003676733759
0.05910416667,-0.0003914156696
0.059125,-0.0004309997021
0.05914583333,-0.0004554852203
0.05916666667,-0.0004670082999
0.0591875,-0.0004730627697
0.05920833333,-0.000489911763
0.05922916667,-0.0005213996628
0.05925,-0.0005544212763
0.05927083333,-0.0005549332127
0.05929166667,-0.0005155577674
0.0593125,-0.0004556022468
0.05933333333,-0.0004074047902
0.05935416667,-0.0003986202355
0.059375,-0.0004219444527
0.05939583333,-0.0004533339525
0.05941666667,-0.0004618852399
0.0594375,-0.0004445286468
0.05945833333,-0.0004249321355
0.05947916667,-0.0003933720291
0.0595,-0.0003762366541
0.05952083333,-0.000367035711
0.05954166667,-0.000347337831
0.0595625,-0.0003232333984
0.05958333333,-0.000280413602
0.05960416667,-0.0002661959152
0.059625,-0.0002612063254
0.05964583333,-0.0002955684322
0.05966666667,-0.0003367870813
0.0596875,-0.0003601491626
0.05970833333,-0.0003829578054
0.05972916667,-0.000377971417
0.05975,-0.0003841997532
0.05977083333,-0.0003845934698
0.05979166667,-0.0003862631565
0.0598125,-0.0003743821871
0.05983333333,-0.0003565807128
0.05985416667,-0.0003454839753
0.059875,-0.0003139345499
0.05989583333,-0.0002909718896
0.05991666667,-0.0002715254377
0.0599375,-0.000265884999
0.05995833333,-0.0002594154794
0.05997916667,-0.0002424283593
0.06,-0.0002235736465
0.06002083333,-0.0002072229981
0.06004166667,-0.0001982837566
0.0600625,-0.0001747991337
0.06008333333,-0.0001609573665
0.06010416667,-0.0001591173932
0.060125,-0.0001719662832
0.06014583333,-0.0001828321838
0.06016666667,-0.0001862917998
0.0601875,-0.0001951752638
0.06020833333,-0.0001925786055
0.06022916667,-0.0001850177214
0.06025,-0.0001729115902
0.06027083333,-0.0001667881588
0.06029166667,-0.0001824361098
0.0603125,-0.0001917671616
0.06033333333,-0.0001998381049
0.06035416667,-0.0002219915477
0.060375,-0.0002510427439
0.06039583333,-0.0002898716193
0.06041666667,-0.0003172245633
0.0604375,-0.0003527610388
0.06045833333,-0.0003973650746
0.06047916667,-0.0004043676017
0.0605,-0.0004020634224
0.06052083333,-0.0003868263157
0.06054166667,-0.0003715144703
0.0605625,-0.0003790906048
0.06058333333,-0.0003964216157
0.06060416667,-0.0003908242797
0.060625,-0.000372243172
0.06064583333,-0.0003557742748
0.06066666667,-0.0003338222159
0.0606875,-0.000333304808
0.06070833333,-0.0003408468328
0.06072916667,-0.0003475784324
0.06075,-0.0003512565454
0.06077083333,-0.0003394688538
0.06079166667,-0.0003296149953
0.0608125,-0.0003149220138
0.06083333333,-0.000310399977
0.06085416667,-0.0003095539287
0.060875,-0.0003117921005
0.06089583333,-0.000318220089
0.06091666667,-0.0003042663157
0.0609375,-0.0002898043313
0.06095833333,-0.0002843245165
0.06097916667,-0.0002858387597
0.061,-0.0003029438667
0.06102083333,-0.0003098819871
0.06104166667,-0.0003031814995
0.0610625,-0.0002803147363
0.06108333333,-0.0002601163287
0.06110416667,-0.0002405283885
0.061125,-0.0002256207808
0.06114583333,-0.0002166172781
0.06116666667,-0.0002016856888
0.0611875,-0.000194741704
0.06120833333,-0.0001785640488
0.06122916667,-0.0001773024123
0.06125,-0.0001637642126
0.06127083333,-0.0001650211343
0.06129166667,-0.0001688475604
0.0613125,-0.0001452737924
0.06133333333,-0.0001249687193
0.06135416667,-8.829771105e-05
0.061375,-5.408129073e-05
0.06139583333,-2.649554699e-05
0.06141666667,-1.219757087e-05
0.0614375,-5.705473086e-06
0.06145833333,-1.27580206e-05
0.06147916667,-2.262347698e-05
0.0615,-3.398891204e-05
0.06152083333,-5.821934246e-05
0.06154166667,-7.835996803e-05
0.0615625,-9.655957547e-05
0.06158333333,-0.0001159499807
0.06160416667,-0.0001469308627
0.061625,-0.0001732314122
0.06164583333,-0.0001797344594
0.06166666667,-0.0001921190997
0.0616875,-0.0002131492365
0.06170833333,-0.0002240205795
0.06172916667,-0.0002311065909
0.06175,-0.0002358487982
0.06177083333,-0.0002359134232
0.06179166667,-0.0002240847389
0.0618125,-0.0002201174211
0.06183333333,-0.0002036983497
0.06185416667,-0.0002043007698
0.061875,-0.0002204233751
0.06189583333,-0.0002238151355
0.06191666667,-0.0002137945266
0.0619375,-0.0002072902716
0.06195833333,-0.0002094419469
0.06197916667,-0.000226695498
0.062,-0.0002408711734
0.06202083333,-0.000247544609
0.06204166667,-0.0002469935862
0.0620625,-0.0002387435379
0.06208333333,-0.0002286285307
0.06210416667,-0.000204945216
0.062125,-0.0002005137794
0.06214583333,-0.0002064059663
0.06216666667,-0.0001944252726
0.0621875,-0.0001565552229
0.06220833333,-0.0001192206764
0.06222916667,-9.942511679e-05
0.06225,-9.953974222e-05
0.06227083333,-0.0001047950354
0.06229166667,-0.0001023316727
0.0623125,-9.648676496e-05
0.06233333333,-0.0001048790873
0.06235416667,-0.0001153381963
0.062375,-0.0001323836914
0.06239583333,-0.0001396973967
0.06241666667,-0.0001244635787
0.0624375,-0.0001152993646
0.06245833333,-9.521857282e-05
0.06247916667,-7.220260159e-05
0.0625,-2.404815314e-05
0.06252083333,2.397353273e-05
0.06254166667,5.69864751e-05
0.0625625,6.768950698e-05
0.06258333333,7.503961388e-05
0.06260416667,8.825716941e-05
0.062625,9.62677077e-05
0.06264583333,0.0001098028442
0.06266666667,0.0001274490933
0.0626875,0.0001368272788
0.06270833333,0.000136012779
0.06272916667,0.0001422053465
0.06275,0.0001610712352
0.06277083333,0.0001997112558
0.06279166667,0.0002418930962
0.0628125,0.0002751642023
0.06283333333,0.0002878613304
0.06285416667,0.0002827093995
0.062875,0.000281952467
0.06289583333,0.0002922498679
0.06291666667,0.0003156389866
0.0629375,0.0003355682711
0.06295833333,0.0003465120972
0.06297916667,0.000347898982
0.063,0.0003514909185
0.06302083333,0.0003756528022
0.06304166667,0.0004028086551
0.0630625,0.0004341959429
0.06308333333,0.0004410548718
0.06310416667,0.000431960827
0.063125,0.0004139918019
0.06314583333,0.0003956517612
0.06316666667,0.000411945337
0.0631875,0.0004297400883
0.06320833333,0.0004660464183
0.06322916667,0.0004990277812
0.06325,0.0005152120139
0.06327083333,0.0005253626732
0.06329166667,0.0005079516559
0.0633125,0.0004956808989
0.06333333333,0.000486279605
0.06335416667,0.0004752448294
0.063375,0.0004667686881
0.06339583333,0.0004529152648
0.06341666667,0.0004322965979
0.0634375,0.0004106819979
0.06345833333,0.0004071479489
0.06347916667,0.0004168645828
0.0635,0.0004287195334
0.06352083333,0.0004364304477
0.06354166667,0.000431154127
0.0635625,0.0004199568066
0.06358333333,0.0004118332581
0.06360416667,0.0004008592805
0.063625,0.0003872080415
0.06364583333,0.000364691572
0.06366666667,0.0003148267861
0.0636875,0.0002880912507
0.06370833333,0.0002722003846
0.06372916667,0.0003002670419
0.06375,0.000381755468
0.06377083333,0.0004484139499
0.06379166667,0.0005593753885
0.0638125,0.0006782154087
0.06383333333,0.0007724004681
0.06385416667,0.0008366926922
0.063875,0.0008554508095
0.06389583333,0.0008465727442
0.06391666667,0.0008418480284
0.0639375,0.0008223961922
0.06395833333,0.0007982605603
0.06397916667,0.0007744791219
0.064,0.0007428030367
0.06402083333,0.000714343274
0.06404166667,0.0006874050014
0.0640625,0.0006746625877
0.06408333333,0.000666990818
0.06410416667,0.0006569370744
0.064125,0.0006347621675
0.06414583333,0.0005947559839
0.06416666667,0.0005510889459
0.0641875,0.0005259680329
0.06420833333,0.000506434415
0.06422916667,0.0004760384036
0.06425,0.0004365406057
0.06427083333,0.0003888082283
0.06429166667,0.0003477766586
0.0643125,0.0003309295571
0.06433333333,0.000323535176
0.06435416667,0.0003200199862
0.064375,0.0003100480244
0.06439583333,0.0002995698596
0.06441666667,0.0002898661769
0.0644375,0.0002774726599
0.06445833333,0.0002786965924
0.06447916667,0.0002797819034
0.0645,0.0002923287102
0.06452083333,0.0002926501038
0.06454166667,0.0002820873633
0.0645625,0.0002741220524
0.06458333333,0.0002678788442
0.06460416667,0.0002806197153
0.064625,0.0002714535512
0.06464583333,0.0002621560707
0.06466666667,0.0002610682568
0.0646875,0.0002697394229
0.06470833333,0.0002997028059
0.06472916667,0.0003345688456
0.06475,0.0003696948115
0.06477083333,0.0003841232683
0.06479166667,0.0003970215912
0.0648125,0.0004085598921
0.06483333333,0.0004112851457
0.06485416667,0.0004116773198
0.064875,0.000405971281
0.06489583333,0.0003920184681
0.06491666667,0.0003802469
0.0649375,0.0003685131378
0.06495833333,0.000362362247
0.06497916667,0.0003665832337
0.065,0.0003702655085
0.06502083333,0.0003800109844
0.06504166667,0.0003763996647
0.0650625,0.000369339803
0.06508333333,0.0003660396615
0.06510416667,0.0003589857952
0.065125,0.0003590784036
0.06514583333,0.0003486214264
0.06516666667,0.0003333044297
0.0651875,0.0003260622616
0.06520833333,0.0003196498146
0.06522916667,0.0003244233376
0.06525,0.0003408533812
0.06527083333,0.0003620835778
0.06529166667,0.0003889307845
0.0653125,0.0004010032571
0.06533333333,0.0004135207564
0.06535416667,0.0004242366995
0.065375,0.0004468364059
0.06539583333,0.000472408894
0.06541666667,0.0004766808124
0.0654375,0.0004816111759
0.06545833333,0.0004848613753
0.06547916667,0.0005020595854
0.0655,0.0005248677335
0.06552083333,0.0005409297883
0.06554166667,0.0005621510791
0.0655625,0.0005643292097
0.06558333333,0.000566370145
0.06560416667,0.0005749453558
0.065625,0.0005798920174
0.06564583333,0.000595551508
0.06566666667,0.0006011867081
0.0656875,0.0005972617655
0.06570833333,0.0005877894
0.06572916667,0.0005769254058
0.06575,0.0005709956167
0.06577083333,0.0005745249218
0.06579166667,0.0005643299664
0.0658125,0.0005498055252
0.06583333333,0.0005335909082
0.06585416667,0.0005027090083
0.065875,0.0004824238131
0.06589583333,0.0004624049179
0.06591666667,0.0004663748259
0.0659375,0.0004788083897
0.06595833333,0.0004810565733
0.06597916667,0.0004721441073
0.066,0.000447633327
0.06602083333,0.000432231609
0.06604166667,0.000425185659
0.0660625,0.0004239421396
0.06608333333,0.0004213853099
0.06610416667,0.0004081507504
0.066125,0.000387873064
0.06614583333,0.0003704557894
0.06616666667,0.0003680032096
0.0661875,0.0003834009694
0.06620833333,0.0004072912852
0.06622916667,0.0004210912739
0.06625,0.0004211402265
0.06627083333,0.0004094551841
0.06629166667,0.0004118484794
0.0663125,0.0004251728824
0.06633333333,0.0004386486835
0.06635416667,0.0004521291412
0.066375,0.0004380132887
0.06639583333,0.0004059077182
0.06641666667,0.0003726416617
0.0664375,0.0003541730111
0.06645833333,0.0003605203528
0.06647916667,0.0003700884699
0.0665,0.0003782761341
0.06652083333,0.0003779160324
0.06654166667,0.0003771711199
0.0665625,0.0003802913416
0.06658333333,0.0003870467772
0.06660416667,0.0003938206937
0.066625,0.0004054264282
0.06664583333,0.0004052588192
0.06666666667,0.00039408679
0.0666875,0.0003817868419
0.06670833333,0.0003720825771
0.06672916667,0.0003803522559
0.06675,0.0003907610662
0.06677083333,0.0003923739423
0.06679166667,0.0003911389795
0.0668125,0.0003852591617
0.06683333333,0.0003953772248
0.06685416667,0.000403708691
0.066875,0.0004112529277
0.06689583333,0.0004130560264
0.06691666667,0.0004038444895
0.0669375,0.0003939674352
0.06695833333,0.0003828467743
0.06697916667,0.000378540979
0.067,0.0003729235032
0.06702083333,0.0003751170589
0.06704166667,0.0003839310957
0.0670625,0.000396654068
0.06708333333,0.0004114923067
0.06710416667,0.0004256051034
0.067125,0.0004373678239
0.06714583333,0.000437772338
0.06716666667,0.0004360791063
0.0671875,0.0004264294403
0.06720833333,0.0004133807379
0.06722916667,0.0004003512731
0.06725,0.0003941018076
0.06727083333,0.0003902511671
0.06729166667,0.0003869778011
0.0673125,0.0003882303135
0.06733333333,0.0003892763343
0.06735416667,0.0003980550391
0.067375,0.0004003054928
0.06739583333,0.0004028187541
0.06741666667,0.0004067095288
0.0674375,0.0003963399504
0.06745833333,0.0003902894678
0.06747916667,0.00038190739
0.0675,0.0003764346475
0.06752083333,0.0003733423073
0.06754166667,0.0003592679277
0.0675625,0.0003504469059
0.06758333333,0.0003474658006
0.06760416667,0.0003548120148
0.067625,0.0003616163449
0.06764583333,0.0003690926533
0.06766666667,0.0003692632017
0.0676875,0.0003581839555
0.06770833333,0.0003428239143
0.06772916667,0.0003265521955
0.06775,0.000320358231
0.06777083333,0.0003138704924
0.06779166667,0.000302850618
0.0678125,0.0002895256912
0.06783333333,0.0002810586011
0.06785416667,0.0002864240378
0.067875,0.0002957820252
0.06789583333,0.0003013929818
0.06791666667,0.0003046527563
0.0679375,0.0003053298278
0.06795833333,0.0003071195679
0.06797916667,0.0003120309557
0.068,0.0003195379395
0.06802083333,0.0003261557431
0.06804166667,0.000322696229
0.0680625,0.0003185439855
0.06808333333,0.0003154324368
0.06810416667,0.0003176618484
0.068125,0.0003263413964
0.06814583333,0.0003242001112
0.06816666667,0.0003127657692
0.0681875,0.0003005845647
0.06820833333,0.0002915433433
0.06822916667,0.0002945451997
0.06825,0.0003041722812
0.06827083333,0.0003136916494
0.06829166667,0.0003171161225
0.0683125,0.0003108075471
0.06833333333,0.0003071360989
0.06835416667,0.0003116590087
0.068375,0.0003171602439
0.06839583333,0.0003187703842
0.06841666667,0.0003129141987
0.0684375,0.000301567401
0.06845833333,0.000289141637
0.06847916667,0.0002751413267
0.0685,0.0002707680978
0.06852083333,0.0002746174869
0.06854166667,0.0002832470054
0.0685625,0.0002848106087
0.06858333333,0.0002806612756
0.06860416667,0.0002790097788
0.068625,0.0002857820364
0.06864583333,0.0003012916422
0.06866666667,0.0003163522342
0.0686875,0.0003203869273
0.06870833333,0.0003120007459
0.06872916667,0.0002995663963
0.06875,0.000291541277
0.06877083333,0.0002854458289
0.06879166667,0.0002818057546
0.0688125,0.0002804811811
0.06883333333,0.0002763590019
0.06885416667,0.0002705104998
0.068875,0.0002665367792
0.06889583333,0.0002658018202
0.06891666667,0.0002704636427
0.0689375,0.0002744573867
0.06895833333,0.0002785855322
0.06897916667,0.0002789590508
0.069,0.0002779158822
0.06902083333,0.0002800875809
0.06904166667,0.000280895707
0.0690625,0.0002789146674
0.06908333333,0.000279849628
0.06910416667,0.0002838146756
0.069125,0.0002943613217
0.06914583333,0.0003019280848
0.06916666667,0.0003060616727
0.0691875,0.0003105209908
0.06920833333,0.0003103651397
0.06922916667,0.0003091996186
0.06925,0.0003077097062
0.06927083333,0.0003066238714
0.06929166667,0.000307509792
0.0693125,0.0003079493181
0.06933333333,0.0003071373503
0.06935416667,0.0003060414747
0.069375,0.0003050928062
0.06939583333,0.0003089720267
0.06941666667,0.0003138250031
0.0694375,0.0003159018524
0.06945833333,0.0003093869891
0.06947916667,0.0002988625201
0.0695,0.0002844473056
0.06952083333,0.0002697999589
0.06954166667,0.0002594661491
0.0695625,0.0002587575582
0.06958333333,0.000259018183
0.06960416667,0.0002549513301
0.069625,0.0002451495384
0.06964583333,0.0002324896632
0.06966666667,0.0002296074235
0.0696875,0.0002282374917
0.06970833333,0.0002316681057
0.06972916667,0.0002318140323
0.06975,0.0002297641186
0.06977083333,0.0002315936727
0.06979166667,0.0002283470822
0.0698125,0.0002270089171
0.06983333333,0.0002272013371
0.06985416667,0.0002294352162
0.069875,0.0002352702286
0.06989583333,0.000239388668
0.06991666667,0.000249233155
0.0699375,0.0002610098454
0.06995833333,0.0002702439087
0.06997916667,0.0002772493463
0.07,0.0002798228816
0.07002083333,0.0002781698422
0.07004166667,0.0002725485538
0.0700625,0.0002633732802
0.07008333333,0.0002484456927
0.07010416667,0.000235542655
0.070125,0.0002263708157
0.07014583333,0.000219036403
0.07016666667,0.00021201247
0.0701875,0.0002053519274
0.07020833333,0.0001962050155
0.07022916667,0.0001865876256
0.07025,0.0001808158559
0.07027083333,0.0001782402542
0.07029166667,0.000175935711
0.0703125,0.0001709268399
0.07033333333,0.0001661656424
0.07035416667,0.0001546865824
0.070375,0.0001404726936
0.07039583333,0.0001265945175
0.07041666667,0.0001125437775
0.0704375,0.0001062048977
0.07045833333,0.0001050411083
0.07047916667,0.0001063037707
0.0705,0.0001103883333
0.07052083333,0.0001174661375
0.07054166667,0.0001294052636
0.0705625,0.0001423070062
0.07058333333,0.0001533259783
0.07060416667,0.0001616094669
0.070625,0.0001675024687
0.07064583333,0.0001706299518
0.07066666667,0.0001700150169
0.0706875,0.0001691867801
0.07070833333,0.000165588106
0.07072916667,0.0001557676442
0.07075,0.0001433840225
0.07077083333,0.000127951178
0.07079166667,0.0001126733114
0.0708125,0.0001011395289
0.07083333333,9.40083919e-05
0.07085416667,9.115997091e-05
0.070875,8.705553773e-05
0.07089583333,8.153149247e-05
0.07091666667,7.69503531e-05
0.0709375,7.401406765e-05
0.07095833333,7.340604498e-05
0.07097916667,7.512365119e-05
0.071,7.650122279e-05
0.07102083333,7.554074546e-05
0.07104166667,7.372577966e-05
0.0710625,7.141362585e-05
0.07108333333,6.907891657e-05
0.07110416667,7.300086145e-05
0.071125,7.647227176e-05
0.07114583333,7.630213076e-05
0.07116666667,7.602749247e-05
0.0711875,7.55973233e-05
0.07120833333,8.083055582e-05
0.07122916667,8.959602565e-05
0.07125,9.730207967e-05
0.07127083333,0.0001012676876
0.07129166667,0.0001001529308
0.0713125,9.757966473e-05
0.07133333333,8.994015661e-05
0.07135416667,8.249056555e-05
0.071375,7.862682105e-05
0.07139583333,7.536394696e-05
0.07141666667,7.084071694e-05
0.0714375,6.296117499e-05
0.07145833333,5.335339665e-05
0.07147916667,4.64426048e-05
0.0715,4.133035691e-05
0.07152083333,3.772100536e-05
0.07154166667,3.460572407e-05
0.0715625,3.037730676e-05
0.07158333333,2.22330309e-05
0.07160416667,1.467767288e-05
0.071625,8.168572094e-06
0.07164583333,1.298255484e-06
0.07166666667,-7.292940154e-06
0.0716875,-1.816551048e-05
0.07170833333,-2.961903556e-05
0.07172916667,-3.6692305e-05
0.07175,-3.848820052e-05
0.07177083333,-3.34244578e-05
0.07179166667,-2.471310654e-05
0.0718125,-1.809964306e-05
0.07183333333,-1.097569566e-05
0.07185416667,-4.057480055e-06
0.071875,3.17935428e-06
0.07189583333,9.342599697e-06
0.07191666667,1.46401544e-05
0.0719375,1.880535092e-05
0.07195833333,1.657549001e-05
0.07197916667,1.185397196e-05
0.072,5.417522971e-06
0.07202083333,-1.963185468e-06
0.07204166667,-1.001799865e-05
0.0720625,-1.681191679e-05
0.07208333333,-2.159739051e-05
0.07210416667,-2.53669823e-05
0.072125,-2.512872743e-05
0.07214583333,-2.03289037e-05
0.07216666667,-9.93784306e-06
0.0721875,1.518454724e-06
0.07220833333,7.304831797e-06
0.07222916667,4.348017228e-06
0.07225,4.119514756e-07
0.07227083333,-3.927790658e-06
0.07229166667,-6.709455647e-06
0.0723125,-8.946984053e-06
0.07233333333,-1.374854764e-05
0.07235416667,-2.346933434e-05
0.072375,-3.47536843e-05
0.07239583333,-4.389174137e-05
0.07241666667,-4.707012704e-05
0.0724375,-4.317051207e-05
0.07245833333,-3.352934073e-05
0.07247916667,-2.066750494e-05
0.0725,-5.243101441e-06
0.07252083333,9.975849025e-06
0.07254166667,2.962575127e-05
0.0725625,5.479504034e-05
0.07258333333,7.575209747e-05
0.07260416667,8.514108049e-05
0.072625,8.285723015e-05
0.07264583333,7.735528925e-05
0.07266666667,7.015549636e-05
0.0726875,5.919876276e-05
0.07270833333,4.708310735e-05
0.07272916667,3.80243182e-05
0.07275,2.8747123e-05
0.07277083333,1.750303272e-05
0.07279166667,5.538106961e-06
0.0728125,-4.254835858e-06
0.07283333333,-4.924236237e-06
0.07285416667,-2.526229309e-06
0.072875,-2.270450977e-06
0.07289583333,-5.018514003e-06
0.07291666667,-9.463996321e-06
0.0729375,-1.408078424e-05
0.07295833333,-1.575582064e-05
0.07297916667,-1.825434265e-05
0.073,-2.195230809e-05
0.07302083333,-2.844222035e-05
0.07304166667,-3.712747639e-05
0.0730625,-4.436173549e-05
0.07308333333,-4.879110566e-05
0.07310416667,-5.0070008e-05
0.073125,-4.624873327e-05
0.07314583333,-4.239234113e-05
0.07316666667,-4.01746729e-05
0.0731875,-4.190853724e-05
0.07320833333,-4.321259985e-05
0.07322916667,-4.002936839e-05
0.07325,-3.853360977e-05
0.07327083333,-3.869431748e-05
0.07329166667,-4.224116492e-05
0.0733125,-4.839005851e-05
0.07333333333,-5.676486398e-05
0.07335416667,-6.66337728e-05
0.073375,-7.531949814e-05
0.07339583333,-8.30571953e-05
0.07341666667,-8.909551252e-05
0.0734375,-9.816812963e-05
0.07345833333,-0.0001129781085
0.07347916667,-0.0001268287742
0.0735,-0.0001382869086
0.07352083333,-0.0001420817716
0.07354166667,-0.0001423293579
0.0735625,-0.0001428665419
0.07358333333,-0.0001473928714
0.07360416667,-0.000152119188
0.073625,-0.000156826165
0.07364583333,-0.0001591609762
0.07366666667,-0.0001504481188
0.0736875,-0.0001401038753
0.07370833333,-0.0001292304078
0.07372916667,-0.0001258920092
0.07375,-0.0001255876996
0.07377083333,-0.0001208958711
0.07379166667,-0.0001137572472
0.0738125,-0.0001055678949
0.07383333333,-0.0001013342116
0.07385416667,-0.0001030829008
0.073875,-0.000109343011
0.07389583333,-0.0001146183422
0.07391666667,-0.0001142263354
0.0739375,-0.000109825065
0.07395833333,-0.0001051845247
0.07397916667,-0.0001044163873
0.074,-0.0001077882844
0.07402083333,-0.0001101400558
0.07404166667,-0.000109261804
0.0740625,-0.0001042283475
0.07408333333,-9.88063839e-05
0.07410416667,-9.666438564e-05
0.074125,-9.937154391e-05
0.07414583333,-0.0001041541254
0.07416666667,-0.0001084866599
0.0741875,-0.0001101280577
0.07420833333,-0.0001106305353
0.07422916667,-0.0001120472225
0.07425,-0.0001143545742
0.07427083333,-0.0001175502184
0.07429166667,-0.0001193110875
0.0743125,-0.0001179861283
0.07433333333,-0.0001129628581
0.07435416667,-0.0001060922004
0.074375,-0.000103089711
0.07439583333,-0.0001016232782
0.07441666667,-9.932944522e-05
0.0744375,-9.72030175e-05
0.07445833333,-9.384849545e-05
0.07447916667,-9.307524306e-05
0.0745,-9.402071009e-05
0.07452083333,-9.682980453e-05
0.07454166667,-0.0001005741942
0.0745625,-0.0001026816171
0.07458333333,-0.0001042427612
0.07460416667,-0.0001012487701
0.074625,-9.613009024e-05
0.07464583333,-8.989943308e-05
0.07466666667,-8.488045569e-05
0.0746875,-8.349288692e-05
0.07470833333,-8.225239435e-05
0.07472916667,-7.875359734e-05
0.07475,-7.569659647e-05
0.07477083333,-7.631926564e-05
0.07479166667,-8.143040031e-05
0.0748125,-9.006900655e-05
0.07483333333,-9.771221085e-05
0.07485416667,-0.0001014669178
0.074875,-0.0001052561711
0.07489583333,-0.000109187873
0.07491666667,-0.0001143925765
0.0749375,-0.0001188966562
0.07495833333,-0.0001192943892
0.07497916667,-0.0001176444493
0.075,-0.0001122905596
0.07502083333,-0.000108398759
0.07504166667,-0.0001075549371
0.0750625,-0.0001092614184
0.07508333333,-0.0001137747677
0.07510416667,-0.0001155609934
0.075125,-0.0001173487835
0.07514583333,-0.000122120633
0.07516666667,-0.0001297123235
0.0751875,-0.0001377371809
0.07520833333,-0.0001418678439
0.07522916667,-0.0001442922367
0.07525,-0.000146264385
0.07527083333,-0.0001499839127
0.07529166667,-0.0001527180575
0.0753125,-0.0001541307429
0.07533333333,-0.0001561470563
0.07535416667,-0.000156427559
0.075375,-0.0001561924873
0.07539583333,-0.0001572496549
0.07541666667,-0.0001611593761
0.0754375,-0.0001666305179
0.07545833333,-0.0001728048519
0.07547916667,-0.0001762960892
0.0755,-0.0001767571666
0.07552083333,-0.0001796198485
0.07554166667,-0.0001834449358
0.0755625,-0.0001864979859
0.07558333333,-0.0001851242705
0.07560416667,-0.0001798856392
0.075625,-0.0001752638927
0.07564583333,-0.0001712020021
0.07566666667,-0.0001698030392
0.0756875,-0.000169974126
0.07570833333,-0.0001680337155
0.07572916667,-0.0001642676798
0.07575,-0.0001592511398
0.07577083333,-0.0001581524557
0.07579166667,-0.0001617202506
0.0758125,-0.0001680163114
0.07583333333,-0.0001723148598
0.07585416667,-0.0001722265006
0.075875,-0.0001703853341
0.07589583333,-0.0001684402814
0.07591666667,-0.0001703039015
0.0759375,-0.000174026427
0.07595833333,-0.0001770657691
0.07597916667,-0.0001780087186
0.076,-0.0001771965617
0.07602083333,-0.000178621136
0.07604166667,-0.0001810692629
0.0760625,-0.0001847865351
0.07608333333,-0.0001887315157
0.07610416667,-0.000191129322
0.076125,-0.0001915450557
0.07614583333,-0.0001879417105
0.07616666667,-0.0001860034972
0.0761875,-0.0001857514144
0.07620833333,-0.0001847006642
0.07622916667,-0.0001816356234
0.07625,-0.000174293411
0.07627083333,-0.0001682796137
0.07629166667,-0.0001623246353
0.0763125,-0.0001574899507
0.07633333333,-0.0001561942627
0.07635416667,-0.0001554787159
0.076375,-0.0001547162974
0.07639583333,-0.0001533891045
0.07641666667,-0.0001503554959
0.0764375,-0.0001485513931
0.07645833333,-0.0001477716141
0.07647916667,-0.0001472245494
0.0765,-0.0001453859586
0.07652083333,-0.0001414017606
0.07654166667,-0.0001391296391
0.0765625,-0.0001388251258
0.07658333333,-0.0001387248485
0.07660416667,-0.000138014715
0.076625,-0.0001361418399
0.07664583333,-0.0001344444754
0.07666666667,-0.0001339536248
0.0766875,-0.0001350729726
0.07670833333,-0.0001369905804
0.07672916667,-0.0001375383581
0.07675,-0.0001389089593
0.07677083333,-0.0001397030428
0.07679166667,-0.0001385002834
0.0768125,-0.0001373808918
0.07683333333,-0.0001360777387
0.07685416667,-0.0001352673717
0.076875,-0.0001333841356
0.07689583333,-0.0001313020621
0.07691666667,-0.0001301700977
0.0769375,-0.0001305528713
0.07695833333,-0.0001315105765
0.07697916667,-0.0001312779204
0.077,-0.0001291867375
0.07702083333,-0.0001280189899
0.07704166667,-0.0001277183037
0.0770625,-0.0001290152431
0.07708333333,-0.000129315391
0.07710416667,-0.0001295200491
0.077125,-0.0001312727109
0.07714583333,-0.00013133428
0.07716666667,-0.0001316367998
0.0771875,-0.0001332719694
0.07720833333,-0.0001356001158
0.07722916667,-0.0001390502148
0.07725,-0.000140665943
0.07727083333,-0.0001404753421
0.07729166667,-0.0001401470072
0.0773125,-0.0001407085801
0.07733333333,-0.0001421943743
0.07735416667,-0.0001425025694
0.077375,-0.0001416185405
0.07739583333,-0.0001397036685
0.07741666667,-0.0001366613287
0.0774375,-0.0001320481679
0.07745833333,-0.0001277693664
0.07747916667,-0.0001244842861
0.0775,-0.0001215980301
0.07752083333,-0.0001178263919
0.07754166667,-0.000112988615
0.0775625,-0.0001095147236
0.07758333333,-0.0001089903089
0.07760416667,-0.0001106461423
0.077625,-0.0001110953017
0.07764583333,-0.000110191846
0.07766666667,-0.0001090967271
0.0776875,-0.0001091169033
0.07770833333,-0.0001102681053
0.07772916667,-0.0001123717302
0.07775,-0.0001138779044
0.07777083333,-0.0001133683836
0.07779166667,-0.0001120025991
0.0778125,-0.0001110868689
0.07783333333,-0.0001116753992
0.07785416667,-0.000113823553
0.077875,-0.0001155201971
0.07789583333,-0.0001160858228
0.07791666667,-0.0001174992649
0.0779375,-0.000118770251
0.07795833333,-0.0001211497438
0.07797916667,-0.0001250888163
0.078,-0.0001287630002
0.07802083333,-0.0001317072019
0.07804166667,-0.0001316795679
0.0780625,-0.0001280606375
0.07808333333,-0.0001222745341
0.07810416667,-0.0001167234441
0.078125,-0.0001109358636
0.07814583333,-0.0001061270596
0.07816666667,-0.0001014265872
0.0781875,-9.493410471e-05
0.07820833333,-8.770571731e-05
0.07822916667,-7.990421727e-05
0.07825,-7.547337009e-05
0.07827083333,-7.481830835e-05
0.07829166667,-7.594187628e-05
0.0783125,-7.673892833e-05
0.07833333333,-7.638640091e-05
0.07835416667,-7.718279812e-05
0.078375,-7.881111378e-05
0.07839583333,-8.075265214e-05
0.07841666667,-8.212056127e-05
0.0784375,-8.282386989e-05
0.07845833333,-8.072509081e-05
0.07847916667,-7.772255049e-05
0.0785,-7.666101737e-05
0.07852083333,-7.843507774e-05
0.07854166667,-8.404850087e-05
0.0785625,-8.889855235e-05
0.07858333333,-9.247197886e-05
0.07860416667,-9.479508299e-05
0.078625,-9.636796312e-05
0.07864583333,-0.0001003674479
0.07866666667,-0.000104253857
0.0786875,-0.0001086410048
0.07870833333,-0.0001108188299
0.07872916667,-0.0001099366928
0.07875,-0.0001081721348
0.07877083333,-0.0001054081586
0.07879166667,-0.000104171384
0.0788125,-0.0001024499652
0.07883333333,-9.966168727e-05
0.07885416667,-9.72700509e-05
0.078875,-9.533217235e-05
0.07889583333,-9.701651288e-05
0.07891666667,-9.883847088e-05
0.0789375,-9.9814235e-05
0.07895833333,-9.996332665e-05
0.07897916667,-9.899969882e-05
0.079,-9.827307804e-05
0.07902083333,-9.682032396e-05
0.07904166667,-9.509657684e-05
0.0790625,-9.36317665e-05
0.07908333333,-8.962085849e-05
0.07910416667,-8.718881872e-05
0.079125,-8.60798973e-05
0.07914583333,-8.373636228e-05
0.07916666667,-8.211535896e-05
0.0791875,-7.95668675e-05
0.07920833333,-7.838253805e-05
0.07922916667,-7.923512749e-05
0.07925,-8.032508777e-05
0.07927083333,-8.238745795e-05
0.07929166667,-8.347035327e-05
0.0793125,-8.41547153e-05
0.07933333333,-8.360052743e-05
0.07935416667,-8.427159628e-05
0.079375,-8.525849262e-05
0.07939583333,-8.317946777e-05
0.07941666667,-8.207245264e-05
0.0794375,-7.950806321e-05
0.07945833333,-7.745146286e-05
0.07947916667,-7.876237214e-05
0.0795,-7.9555517e-05
0.07952083333,-8.430161688e-05
0.07954166667,-8.71402226e-05
0.0795625,-8.922054985e-05
0.07958333333,-9.149126709e-05
0.07960416667,-9.297662473e-05
0.079625,-9.643856902e-05
0.07964583333,-9.836992831e-05
0.07966666667,-0.0001012308276
0.0796875,-0.0001045807803
0.07970833333,-0.0001055773464
0.07972916667,-0.0001055179164
0.07975,-0.0001031546126
0.07977083333,-0.0001010914129
0.07979166667,-0.0001006267266
0.0798125,-9.889833018e-05
0.07983333333,-9.594956646e-05
0.07985416667,-9.410653729e-05
0.079875,-9.371146007e-05
0.07989583333,-9.628040425e-05
0.07991666667,-9.774506179e-05
0.0799375,-9.576345474e-05
0.07995833333,-9.390484774e-05
0.07997916667,-8.978787082e-05
0.08,-8.417383651e-05
0.08002083333,-8.392034943e-05
0.08004166667,-8.329281263e-05
0.0800625,-7.999387162e-05
0.08008333333,-7.594897033e-05
0.08010416667,-7.170679601e-05
0.080125,-6.762801786e-05
0.08014583333,-6.738504453e-05
0.08016666667,-6.688520807e-05
0.0801875,-6.559952453e-05
0.08020833333,-6.405294698e-05
0.08022916667,-6.219463103e-05
0.08025,-6.433920498e-05
0.08027083333,-6.723029946e-05
0.08029166667,-6.911517994e-05
0.0803125,-7.284242747e-05
0.08033333333,-7.441419439e-05
0.08035416667,-7.753177488e-05
0.080375,-8.238090231e-05
0.08039583333,-8.360638458e-05
0.08041666667,-8.697502926e-05
0.0804375,-9.098846931e-05
0.08045833333,-9.457235865e-05
0.08047916667,-9.811427299e-05
0.0805,-9.92331552e-05
0.08052083333,-0.0001009659027
0.08054166667,-0.0001011215645
0.0805625,-9.917439456e-05
0.08058333333,-9.634266462e-05
0.08060416667,-9.089280502e-05
0.080625,-8.610317309e-05
0.08064583333,-8.300863556e-05
0.08066666667,-8.190412336e-05
0.0806875,-7.742000162e-05
0.08070833333,-7.284594903e-05
0.08072916667,-7.048312546e-05
0.08075,-6.897065032e-05
0.08077083333,-6.877385749e-05
0.08079166667,-6.937167927e-05
0.0808125,-6.99362281e-05
0.08083333333,-6.852425577e-05
0.08085416667,-6.849045167e-05
0.080875,-7.112945605e-05
0.08089583333,-7.187650772e-05
0.08091666667,-7.320298755e-05
0.0809375,-7.397224545e-05
0.08095833333,-7.327969797e-05
0.08097916667,-7.412621926e-05
0.081,-7.675238885e-05
0.08102083333,-7.901842037e-05
0.08104166667,-7.984112744e-05
0.0810625,-8.237456495e-05
0.08108333333,-8.488489402e-05
0.08110416667,-8.69409414e-05
0.081125,-8.976479148e-05
0.08114583333,-9.376699018e-05
0.08116666667,-9.685658006e-05
0.0811875,-9.57861339e-05
0.08120833333,-9.359296382e-05
0.08122916667,-9.017686534e-05
0.08125,-8.806112601e-05
0.08127083333,-8.45049799e-05
0.08129166667,-7.972707681e-05
0.0813125,-7.706067117e-05
0.08133333333,-7.283603918e-05
0.08135416667,-6.902372843e-05
0.081375,-6.584251969e-05
0.08139583333,-6.564280193e-05
0.08141666667,-6.611626304e-05
0.0814375,-6.873285747e-05
0.08145833333,-7.03574915e-05
0.08147916667,-7.225085574e-05
0.0815,-7.985028788e-05
0.08152083333,-8.43815651e-05
0.08154166667,-8.986461762e-05
0.0815625,-9.498626605e-05
0.08158333333,-9.64882056e-05
0.08160416667,-9.945627244e-05
0.081625,-9.925893391e-05
0.08164583333,-9.992189007e-05
0.08166666667,-0.0001003194702
0.0816875,-0.0001002032659
0.08170833333,-0.0001013549117
0.08172916667,-9.974229033e-05
0.08175,-9.944337216e-05
0.08177083333,-0.0001009846019
0.08179166667,-0.000102153761
0.0818125,-0.0001048641716
0.08183333333,-0.0001026463797
0.08185416667,-0.0001001752971
0.081875,-9.736615903e-05
0.08189583333,-9.28958907e-05
0.08191666667,-9.01037929e-05
0.0819375,-8.474983042e-05
0.08195833333,-7.639043906e-05
0.08197916667,-6.881369336e-05
0.082,-5.991639046e-05
0.08202083333,-5.187486386e-05
0.08204166667,-4.470605199e-05
0.0820625,-4.122548853e-05
0.08208333333,-3.704208211e-05
0.08210416667,-3.369971455e-05
0.082125,-3.422597001e-05
0.08214583333,-3.424159513e-05
0.08216666667,-3.803833533e-05
0.0821875,-4.101006925e-05
0.08220833333,-4.222719144e-05
0.08222916667,-4.546421769e-05
0.08225,-4.487566912e-05
0.08227083333,-4.578453445e-05
0.08229166667,-4.578458174e-05
0.0823125,-4.760169395e-05
0.08233333333,-5.166668052e-05
0.08235416667,-5.05745993e-05
0.082375,-5.263091589e-05
0.08239583333,-5.318077456e-05
0.08241666667,-5.611322922e-05
0.0824375,-6.022246816e-05
0.08245833333,-6.047686475e-05
0.08247916667,-6.129831308e-05
0.0825,-6.178828335e-05
0.08252083333,-6.093152115e-05
0.08254166667,-6.085560381e-05
0.0825625,-6.169555854e-05
0.08258333333,-5.46059855e-05
0.08260416667,-4.567711949e-05
0.082625,-3.151664714e-05
0.08264583333,-1.855987102e-05
0.08266666667,-9.720390153e-06
0.0826875,4.141707905e-06
0.08270833333,1.263896047e-05
0.08272916667,2.415432937e-05
0.08275,3.357933383e-05
0.08277083333,3.629034109e-05
0.08279166667,4.584431372e-05
0.0828125,4.657867976e-05
0.08283333333,4.803237243e-05
0.08285416667,5.120845526e-05
0.082875,4.967046334e-05
0.08289583333,5.129530109e-05
0.08291666667,4.654765144e-05
0.0829375,4.220959454e-05
0.08295833333,4.129295121e-05
0.08297916667,3.883355021e-05
0.083,4.020992856e-05
0.08302083333,4.048975825e-05
0.08304166667,4.097955389e-05
0.0830625,4.282574082e-05
0.08308333333,4.404021092e-05
0.08310416667,4.740107033e-05
0.083125,5.07592049e-05
0.08314583333,5.535845048e-05
0.08316666667,5.79466323e-05
0.0831875,6.177336036e-05
0.08320833333,6.654049503e-05
0.08322916667,6.937072612e-05
0.08325,7.360591553e-05
0.08327083333,7.722000009e-05
0.08329166667,8.007590077e-05
0.0833125,7.983416435e-05
0.08333333333,7.96384993e-05
0.08335416667,8.207798965e-05
0.083375,8.593172242e-05
0.08339583333,8.891304606e-05
0.08341666667,8.910882752e-05
0.0834375,8.947575407e-05
0.08345833333,9.10109884e-05
0.08347916667,8.978592814e-05
0.0835,8.954561054e-05
0.08352083333,8.690539107e-05
0.08354166667,8.32553269e-05
0.0835625,7.970460865e-05
0.08358333333,7.529136201e-05
0.08360416667,6.991129339e-05
0.083625,6.410957576e-05
0.08364583333,6.146958185e-05
0.08366666667,6.144353392e-05
0.0836875,6.167272659e-05
0.08370833333,6.515264249e-05
0.08372916667,6.560850306e-05
0.08375,7.160723908e-05
0.08377083333,8.37472835e-05
0.08379166667,9.586934902e-05
0.0838125,0.0001138186562
0.08383333333,0.0001239080593
0.08385416667,0.0001336774149
0.083875,0.0001473245065
0.08389583333,0.0001569430751
0.08391666667,0.0001650273043
0.0839375,0.0001674432278
0.08395833333,0.0001694173698
0.08397916667,0.000169610852
0.084,0.0001660316193
0.08402083333,0.0001640580158
0.08404166667,0.0001590237662
0.0840625,0.0001573060435
0.08408333333,0.0001549038716
0.08410416667,0.000148299805
0.084125,0.0001463141089
0.08414583333,0.0001442394423
0.08416666667,0.000142367775
0.0841875,0.0001409981778
0.08420833333,0.0001362746552
0.08422916667,0.0001306843769
0.08425,0.0001240765705
0.08427083333,0.0001186944646
0.08429166667,0.0001159761232
0.0843125,0.0001086329503
0.08433333333,9.946241335e-05
0.08435416667,9.260021761e-05
0.084375,8.289900143e-05
0.08439583333,8.119695849e-05
0.08441666667,7.747857308e-05
0.0844375,7.223953435e-05
0.08445833333,7.550202281e-05
0.08447916667,7.318156713e-05
0.0845,7.663269207e-05
0.08452083333,7.642162382e-05
0.08454166667,7.117279893e-05
0.0845625,7.672791253e-05
0.08458333333,6.961949111e-05
0.08460416667,7.294167881e-05
0.084625,7.509339048e-05
0.08464583333,7.13033005e-05
0.08466666667,7.80124974e-05
0.0846875,7.208866009e-05
0.08470833333,8.226277714e-05
0.08472916667,9.019179561e-05
0.08475,8.867366705e-05
0.08477083333,0.0001067128978
0.08479166667,0.0001094795807
0.0848125,0.0001216181117
0.08483333333,0.0001387437369
0.08485416667,0.0001443402871
0.084875,0.0001582548866
0.08489583333,0.0001592550107
0.08491666667,0.0001620441617
0.0849375,0.0001657711982
0.08495833333,0.000165164558
0.08497916667,0.0001660637645
0.085,0.0001609706815
0.08502083333,0.0001607462182
0.08504166667,0.0001580397802
0.0850625,0.0001489968563
0.08508333333,0.0001447035756
0.08510416667,0.0001396911975
0.085125,0.0001330942614
0.08514583333,0.000125611783
0.08516666667,0.0001166504371
0.0851875,0.000111460984
0.08520833333,0.000102514663
0.08522916667,9.306738502e-05
0.08525,8.791273285e-05
0.08527083333,7.698200352e-05
0.08529166667,7.203541463e-05
0.0853125,6.562213821e-05
0.08533333333,6.054322876e-05
0.08535416667,6.583423237e-05
0.085375,6.148679677e-05
0.08539583333,6.673506141e-05
0.08541666667,7.595626812e-05
0.0854375,8.120731218e-05
0.08545833333,9.275200136e-05
0.08547916667,9.71205809e-05
0.0855,0.0001034974121
0.08552083333,0.0001114877523
0.08554166667,0.0001182915148
0.0855625,0.0001247069013
0.08558333333,0.0001264907332
0.08560416667,0.0001286267507
0.085625,0.0001271139627
0.08564583333,0.0001289975626
0.08566666667,0.0001318049326
0.0856875,0.0001310615626
0.08570833333,0.0001299977012
0.08572916667,0.0001276706753
0.08575,0.0001297816634
0.08577083333,0.0001331302628
0.08579166667,0.0001338607544
0.0858125,0.0001282481389
0.08583333333,0.0001225398883
0.08585416667,0.0001223033469
0.085875,0.0001163857742
0.08589583333,0.0001112963873
0.08591666667,0.0001067249395
0.0859375,9.552419942e-05
0.08595833333,8.778573829e-05
0.08597916667,8.406904817e-05
0.086,7.646217273e-05
0.08602083333,7.082866068e-05
0.08604166667,6.807073805e-05
0.0860625,6.476086855e-05
0.08608333333,6.227444828e-05
0.08610416667,6.112486153e-05
0.086125,6.465907791e-05
0.08614583333,6.733244663e-05
0.08616666667,6.389148621e-05
0.0861875,6.963206397e-05
0.08620833333,6.997418677e-05
0.08622916667,7.252343494e-05
0.08625,7.663668657e-05
0.08627083333,6.933594705e-05
0.08629166667,7.286366599e-05
0.0863125,7.483558147e-05
0.08633333333,7.917571929e-05
0.08635416667,8.116337995e-05
0.086375,7.273792289e-05
0.08639583333,8.036248619e-05
0.08641666667,8.151881048e-05
0.0864375,8.332037396e-05
0.08645833333,8.43847738e-05
0.08647916667,7.67803067e-05
0.0865,8.303170762e-05
0.08652083333,8.016331412e-05
0.08654166667,7.873793948e-05
0.0865625,8.090855408e-05
0.08658333333,7.340111188e-05
0.08660416667,7.501795335e-05
0.086625,7.104310498e-05
