time,data
0,3.82664922e-08
2.083333333e-05,4.346186699e-08
4.166666667e-05,4.861573899e-08
6.25e-05,5.371819967e-08
8.333333333e-05,5.889708632e-08
0.0001041666667,6.418463983e-08
0.000125,6.960790699e-08
0.0001458333333,7.513558131e-08
0.0001666666667,8.067862467e-08
0.0001875,8.626046366e-08
0.0002083333333,9.184752514e-08
0.0002291666667,9.755409991e-08
0.00025,1.033689614e-07
0.0002708333333,1.092984618e-07
0.0002916666667,1.152658982e-07
0.0003125,1.211506486e-07
0.0003333333333,1.269404919e-07
0.0003541666667,1.325603165e-07
0.000375,1.380942507e-07
0.0003958333333,1.434965782e-07
0.0004166666667,1.487549497e-07
0.0004375,1.537833327e-07
0.0004583333333,1.584520817e-07
0.0004791666667,1.627514905e-07
0.0005,1.665971183e-07
0.0005208333333,1.700887253e-07
0.0005416666667,1.731858532e-07
0.0005625,1.759190695e-07
0.0005833333333,1.78208083e-07
0.0006041666667,1.799510159e-07
0.000625,1.811115027e-07
0.0006458333333,1.815967892e-07
0.0006666666667,1.814946131e-07
0.0006875,1.807646157e-07
0.0007083333333,1.794636262e-07
0.0007291666667,1.775051572e-07
0.00075,1.747769005e-07
0.0007708333333,1.712230215e-07
0.0007916666667,1.667215486e-07
0.0008125,1.61416267e-07
0.0008333333333,1.552956945e-07
0.0008541666667,1.485197174e-07
0.000875,1.410275132e-07
0.0008958333333,1.327380943e-07
0.0009166666667,1.235918035e-07
0.0009375,1.134913248e-07
0.0009583333333,1.026263377e-07
0.0009791666667,9.106479126e-08
0.001,7.899260623e-08
0.001020833333,6.636415151e-08
0.001041666667,5.303434847e-08
0.0010625,3.890739109e-08
0.001083333333,2.386982345e-08
0.001104166667,8.148386854e-09
0.001125,-8.140552232e-09
0.001145833333,-2.475722205e-08
0.001166666667,-4.177451274e-08
0.0011875,-5.929638647e-08
0.001208333333,-7.745411068e-08
0.001229166667,-9.624225328e-08
0.00125,-1.153786471e-07
0.001270833333,-1.346393645e-07
0.001291666667,-1.53744196e-07
0.0013125,-1.727739374e-07
0.001333333333,-1.918426449e-07
0.001354166667,-2.110827495e-07
0.001375,-2.305012572e-07
0.001395833333,-2.497677087e-07
0.001416666667,-2.687259837e-07
0.0014375,-2.870871185e-07
0.001458333333,-3.050245994e-07
0.001479166667,-3.226404885e-07
0.0015,-3.400861033e-07
0.001520833333,-3.573092897e-07
0.001541666667,-3.739826582e-07
0.0015625,-3.898817909e-07
0.001583333333,-4.0474157e-07
0.001604166667,-4.18641946e-07
0.001625,-4.316726461e-07
0.001645833333,-4.439114889e-07
0.001666666667,-4.553124029e-07
0.0016875,-4.655669841e-07
0.001708333333,-4.745174067e-07
0.001729166667,-4.819078185e-07
0.00175,-4.879053108e-07
0.001770833333,-4.925609574e-07
0.001791666667,-4.96102416e-07
0.0018125,-4.984985367e-07
0.001833333333,-4.995959557e-07
0.001854166667,-4.992348863e-07
0.001875,-4.971749377e-07
0.001895833333,-4.934996127e-07
0.001916666667,-4.882616054e-07
0.0019375,-4.816379828e-07
0.001958333333,-4.737018742e-07
0.001979166667,-4.642377007e-07
0.002,-4.531252387e-07
0.002020833333,-4.400057207e-07
0.002041666667,-4.249759513e-07
0.0020625,-4.081194618e-07
0.002083333333,-3.897870897e-07
0.002104166667,-3.701696869e-07
0.002125,-3.492430096e-07
0.002145833333,-3.268187072e-07
0.002166666667,-3.026713102e-07
0.0021875,-2.767997671e-07
0.002208333333,-2.495031879e-07
0.002229166667,-2.211717032e-07
0.00225,-1.921134611e-07
0.002270833333,-1.622534427e-07
0.002291666667,-1.312962752e-07
0.0023125,-9.887893526e-08
0.002333333333,-6.501610983e-08
0.002354166667,-2.996615223e-08
0.002375,5.665039993e-09
0.002395833333,4.165439904e-08
0.002416666667,7.793659762e-08
0.0024375,1.1493632e-07
0.002458333333,1.528758702e-07
0.002479166667,1.916886134e-07
0.0025,2.308672435e-07
0.002520833333,2.697424861e-07
0.002541666667,3.079291844e-07
0.0025625,3.454875923e-07
0.002583333333,3.827624084e-07
0.002604166667,4.201024524e-07
0.002625,4.573510637e-07
0.002645833333,4.940965823e-07
0.002666666667,5.296779477e-07
0.0026875,5.638966059e-07
0.002708333333,5.968107075e-07
0.002729166667,6.289353678e-07
0.00275,6.604303167e-07
0.002770833333,6.912730441e-07
0.002791666667,7.20833782e-07
0.0028125,7.485969036e-07
0.002833333333,7.74183718e-07
0.002854166667,7.976735787e-07
0.002875,8.193741223e-07
0.002895833333,8.39437007e-07
0.002916666667,8.577534345e-07
0.0029375,8.738815609e-07
0.002958333333,8.873080901e-07
0.002979166667,8.978918231e-07
0.003,9.056097383e-07
0.003020833333,9.109972439e-07
0.003041666667,9.141538726e-07
0.0030625,9.153332599e-07
0.003083333333,9.141055557e-07
0.003104166667,9.102296872e-07
0.003125,9.033543051e-07
0.003145833333,8.935215305e-07
0.003166666667,8.810071108e-07
0.0031875,8.660662729e-07
0.003208333333,8.488738104e-07
0.003229166667,8.291530094e-07
0.00325,8.065098314e-07
0.003270833333,7.805886071e-07
0.003291666667,7.512576303e-07
0.0033125,7.190508313e-07
0.003333333333,6.842626021e-07
0.003354166667,6.476159911e-07
0.003375,6.08757091e-07
0.003395833333,5.676512842e-07
0.003416666667,5.236933021e-07
0.0034375,4.770208193e-07
0.003458333333,4.28163446e-07
0.003479166667,3.777393545e-07
0.0035,3.264591157e-07
0.003520833333,2.740288494e-07
0.003541666667,2.200416134e-07
0.0035625,1.638950238e-07
0.003583333333,1.054197227e-07
0.003604166667,4.547063526e-08
0.003625,-1.544547423e-08
0.003645833333,-7.630680443e-08
0.003666666667,-1.376396028e-07
0.0036875,-1.996364176e-07
0.003708333333,-2.630587232e-07
0.003729166667,-3.275861502e-07
0.00375,-3.923582028e-07
0.003770833333,-4.563647451e-07
0.003791666667,-5.187640113e-07
0.0038125,-5.798992788e-07
0.003833333333,-6.402150348e-07
0.003854166667,-7.003459359e-07
0.003875,-7.601324796e-07
0.003895833333,-8.185883758e-07
0.003916666667,-8.750849361e-07
0.0039375,-9.287077205e-07
0.003958333333,-9.80313871e-07
0.003979166667,-1.030046064e-06
0.004,-1.078859327e-06
0.004020833333,-1.126164534e-06
0.004041666667,-1.171241365e-06
0.0040625,-1.213161795e-06
0.004083333333,-1.251220397e-06
0.004104166667,-1.285883286e-06
0.004125,-1.317352371e-06
0.004145833333,-1.346176191e-06
0.004166666667,-1.3720271e-06
0.0041875,-1.39408769e-06
0.004208333333,-1.411900371e-06
0.004229166667,-1.424676952e-06
0.00425,-1.433265425e-06
0.004270833333,-1.437639412e-06
0.004291666667,-1.438930326e-06
0.0043125,-1.43667512e-06
0.004333333333,-1.430831844e-06
0.004354166667,-1.420639705e-06
0.004375,-1.405673629e-06
0.004395833333,-1.386262852e-06
0.004416666667,-1.362490593e-06
0.0044375,-1.335285219e-06
0.004458333333,-1.304450279e-06
0.004479166667,-1.269798531e-06
0.0045,-1.230757675e-06
0.004520833333,-1.186376494e-06
0.004541666667,-1.137336653e-06
0.0045625,-1.08338827e-06
0.004583333333,-1.026352493e-06
0.004604166667,-9.660187743e-07
0.004625,-9.02964814e-07
0.004645833333,-8.363332995e-07
0.004666666667,-7.655612535e-07
0.0046875,-6.910348134e-07
0.004708333333,-6.131227792e-07
0.004729166667,-5.335544415e-07
0.00475,-4.526427233e-07
0.004770833333,-3.704956271e-07
0.004791666667,-2.862511792e-07
0.0048125,-1.987111773e-07
0.004833333333,-1.084678871e-07
0.004854166667,-1.560690777e-08
0.004875,7.748865016e-08
0.004895833333,1.709390318e-07
0.004916666667,2.640401249e-07
0.0049375,3.582965746e-07
0.004958333333,4.541818441e-07
0.004979166667,5.512997632e-07
0.005,6.487101132e-07
0.005020833333,7.440750096e-07
0.005041666667,8.370830642e-07
0.0050625,9.2741044e-07
0.005083333333,1.016303827e-06
0.005104166667,1.104701937e-06
0.005125,1.191780598e-06
0.005145833333,1.277227284e-06
0.005166666667,1.358443001e-06
0.0051875,1.435991862e-06
0.005208333333,1.509256208e-06
0.005229166667,1.580140861e-06
0.00525,1.648900707e-06
0.005270833333,1.715245503e-06
0.005291666667,1.778182195e-06
0.0053125,1.835723424e-06
0.005333333333,1.887822918e-06
0.005354166667,1.934079592e-06
0.005375,1.975740815e-06
0.005395833333,2.013124003e-06
0.005416666667,2.045682777e-06
0.0054375,2.073061296e-06
0.005458333333,2.093126568e-06
0.005479166667,2.106771944e-06
0.0055,2.112911716e-06
0.005520833333,2.113823712e-06
0.005541666667,2.10922849e-06
0.0055625,2.099843186e-06
0.005583333333,2.085145752e-06
0.005604166667,2.063768306e-06
0.005625,2.036112846e-06
0.005645833333,2.001188705e-06
0.005666666667,1.960615919e-06
0.0056875,1.914577524e-06
0.005708333333,1.863367515e-06
0.005729166667,1.807191097e-06
0.00575,1.743915163e-06
0.005770833333,1.674376563e-06
0.005791666667,1.596755396e-06
0.0058125,1.513605184e-06
0.005833333333,1.424910124e-06
0.005854166667,1.332448051e-06
0.005875,1.236076741e-06
0.005895833333,1.134655918e-06
0.005916666667,1.028285283e-06
0.0059375,9.158966918e-07
0.005958333333,7.998421552e-07
0.005979166667,6.80945675e-07
0.006,5.607800517e-07
0.006020833333,4.39474718e-07
0.006041666667,3.148370524e-07
0.0060625,1.87226334e-07
0.006083333333,5.450911544e-08
0.006104166667,-7.985816808e-08
0.006125,-2.157928662e-07
0.006145833333,-3.506309554e-07
0.006166666667,-4.85125895e-07
0.0061875,-6.207353636e-07
0.006208333333,-7.576061307e-07
0.006229166667,-8.967274425e-07
0.00625,-1.034739512e-06
0.006270833333,-1.170424753e-06
0.006291666667,-1.301692578e-06
0.0063125,-1.42872932e-06
0.006333333333,-1.553786319e-06
0.006354166667,-1.676480451e-06
0.006375,-1.798498261e-06
0.006395833333,-1.915924031e-06
0.006416666667,-2.028837571e-06
0.0064375,-2.134566557e-06
0.006458333333,-2.234912017e-06
0.006479166667,-2.330995812e-06
0.0065,-2.423503247e-06
0.006520833333,-2.513007985e-06
0.006541666667,-2.596251079e-06
0.0065625,-2.672829169e-06
0.006583333333,-2.740358923e-06
0.006604166667,-2.799934236e-06
0.006625,-2.852834768e-06
0.006645833333,-2.898623052e-06
0.006666666667,-2.93897574e-06
0.0066875,-2.969810566e-06
0.006708333333,-2.992471309e-06
0.006729166667,-3.003801339e-06
0.00675,-3.006141242e-06
0.006770833333,-3.000045126e-06
0.006791666667,-2.986382469e-06
0.0068125,-2.966579586e-06
0.006833333333,-2.938170837e-06
0.006854166667,-2.901867447e-06
0.006875,-2.855333832e-06
0.006895833333,-2.799690265e-06
0.006916666667,-2.735873977e-06
0.0069375,-2.664110752e-06
0.006958333333,-2.58666023e-06
0.006979166667,-2.500407845e-06
0.007,-2.406910653e-06
0.007020833333,-2.302222811e-06
0.007041666667,-2.188748795e-06
0.0070625,-2.066194384e-06
0.007083333333,-1.937040224e-06
0.007104166667,-1.80322661e-06
0.007125,-1.663284365e-06
0.007145833333,-1.518250087e-06
0.007166666667,-1.364786613e-06
0.0071875,-1.204846058e-06
0.007208333333,-1.039283916e-06
0.007229166667,-8.702444916e-07
0.00725,-7.010082754e-07
0.007270833333,-5.286175337e-07
0.007291666667,-3.547262395e-07
0.0073125,-1.740420856e-07
0.007333333333,1.048216713e-08
0.007354166667,1.9905724e-07
0.007375,3.879688961e-07
0.007395833333,5.749915886e-07
0.007416666667,7.618731956e-07
0.0074375,9.482316159e-07
0.007458333333,1.137957156e-06
0.007479166667,1.328499138e-06
0.0075,1.518406179e-06
0.007520833333,1.704176952e-06
0.007541666667,1.882669608e-06
0.0075625,2.056624908e-06
0.007583333333,2.224840273e-06
0.007604166667,2.392612487e-06
0.007625,2.55596683e-06
0.007645833333,2.715427172e-06
0.007666666667,2.866346222e-06
0.0076875,3.007892474e-06
0.007708333333,3.141910383e-06
0.007729166667,3.268543423e-06
0.00775,3.391948439e-06
0.007770833333,3.508856707e-06
0.007791666667,3.618888286e-06
0.0078125,3.718368134e-06
0.007833333333,3.805341976e-06
0.007854166667,3.882377314e-06
0.007875,3.947796358e-06
0.007895833333,4.006674772e-06
0.007916666667,4.054400506e-06
0.0079375,4.092671134e-06
0.007958333333,4.116928721e-06
0.007979166667,4.127427928e-06
0.008,4.125326541e-06
0.008020833333,4.110797363e-06
0.008041666667,4.088009518e-06
0.0080625,4.054464171e-06
0.008083333333,4.011772944e-06
0.008104166667,3.956714863e-06
0.008125,3.888607807e-06
0.008145833333,3.808976317e-06
0.008166666667,3.716405672e-06
0.0081875,3.616412641e-06
0.008208333333,3.505068662e-06
0.008229166667,3.386057415e-06
0.00825,3.254026524e-06
0.008270833333,3.10976543e-06
0.008291666667,2.952816658e-06
0.0083125,2.783670652e-06
0.008333333333,2.607538363e-06
0.008354166667,2.422870921e-06
0.008375,2.233127816e-06
0.008395833333,2.034385261e-06
0.008416666667,1.826293669e-06
0.0084375,1.609824949e-06
0.008458333333,1.384699544e-06
0.008479166667,1.158205805e-06
0.0085,9.276330957e-07
0.008520833333,6.976571285e-07
0.008541666667,4.617808429e-07
0.0085625,2.206589755e-07
0.008583333333,-2.703886892e-08
0.008604166667,-2.794080842e-07
0.008625,-5.306517323e-07
0.008645833333,-7.815792742e-07
0.008666666667,-1.02899935e-06
0.0086875,-1.278304808e-06
0.008708333333,-1.529459269e-06
0.008729166667,-1.782041068e-06
0.00875,-2.034213367e-06
0.008770833333,-2.278170768e-06
0.008791666667,-2.516185987e-06
0.0088125,-2.743372534e-06
0.008833333333,-2.967525006e-06
0.008854166667,-3.186574759e-06
0.008875,-3.402347147e-06
0.008895833333,-3.611421562e-06
0.008916666667,-3.808529073e-06
0.0089375,-3.995277893e-06
0.008958333333,-4.168934083e-06
0.008979166667,-4.336147413e-06
0.009,-4.495980193e-06
0.009020833333,-4.64870709e-06
0.009041666667,-4.792198979e-06
0.0090625,-4.919851563e-06
0.009083333333,-5.034676178e-06
0.009104166667,-5.131778835e-06
0.009125,-5.218902061e-06
0.009145833333,-5.292589321e-06
0.009166666667,-5.355374924e-06
0.0091875,-5.403611794e-06
0.009208333333,-5.433845217e-06
0.009229166667,-5.447685453e-06
0.00925,-5.44249724e-06
0.009270833333,-5.424730716e-06
0.009291666667,-5.393016181e-06
0.0093125,-5.349814273e-06
0.009333333333,-5.293764389e-06
0.009354166667,-5.22081109e-06
0.009375,-5.133798368e-06
0.009395833333,-5.027709449e-06
0.009416666667,-4.91045148e-06
0.0094375,-4.778309631e-06
0.009458333333,-4.636517588e-06
0.009479166667,-4.481485576e-06
0.0095,-4.311245448e-06
0.009520833333,-4.125954547e-06
0.009541666667,-3.922167707e-06
0.0095625,-3.706637017e-06
0.009583333333,-3.478454801e-06
0.009604166667,-3.242985713e-06
0.009625,-2.999128128e-06
0.009645833333,-2.743867753e-06
0.009666666667,-2.478885108e-06
0.0096875,-2.199295523e-06
0.009708333333,-1.914407449e-06
0.009729166667,-1.622075729e-06
0.00975,-1.330400778e-06
0.009770833333,-1.035283162e-06
0.009791666667,-7.352003308e-07
0.0098125,-4.282171062e-07
0.009833333333,-1.113133621e-07
0.009854166667,2.079552672e-07
0.009875,5.295643746e-07
0.009895833333,8.46538569e-07
0.009916666667,1.161797968e-06
0.0099375,1.478231297e-06
0.009958333333,1.795860044e-06
0.009979166667,2.118481007e-06
0.01,2.551397756e-06
0.01002083333,3.323223837e-06
0.01004166667,3.788827371e-06
0.0100625,3.98447537e-06
0.01008333333,4.105118478e-06
0.01010416667,4.394972621e-06
0.010125,4.724267455e-06
0.01014583333,5.160738056e-06
0.01016666667,5.430918009e-06
0.0101875,5.602218152e-06
0.01020833333,5.765201422e-06
0.01022916667,6.104798558e-06
0.01025,6.491694421e-06
0.01027083333,6.977362318e-06
0.01029166667,7.331597772e-06
0.0103125,7.586711035e-06
0.01033333333,7.724364878e-06
0.01035416667,7.879731129e-06
0.010375,7.972670574e-06
0.01039583333,8.141726539e-06
0.01041666667,8.125462045e-06
0.0104375,7.993511645e-06
0.01045833333,7.821035979e-06
0.01047916667,7.862076927e-06
0.0105,8.013167644e-06
0.01052083333,8.276878361e-06
0.01054166667,8.372614502e-06
0.0105625,8.258768503e-06
0.01058333333,8.047879419e-06
0.01060416667,7.855173862e-06
0.010625,7.661517884e-06
0.01064583333,7.688089681e-06
0.01066666667,7.603285212e-06
0.0106875,7.469606317e-06
0.01070833333,7.075649592e-06
0.01072916667,6.769457286e-06
0.01075,6.519418548e-06
0.01077083333,6.483198376e-06
0.01079166667,6.35371407e-06
0.0108125,6.137831861e-06
0.01083333333,5.87112163e-06
0.01085416667,5.596374649e-06
0.010875,5.337675248e-06
0.01089583333,5.202366538e-06
0.01091666667,4.84641987e-06
0.0109375,4.506156984e-06
0.01095833333,3.952488896e-06
0.01097916667,3.621728638e-06
0.011,3.222049372e-06
0.01102083333,2.967428372e-06
0.01104166667,2.763662906e-06
0.0110625,2.41100588e-06
0.01108333333,1.865738341e-06
0.01110416667,1.397229312e-06
0.011125,8.804860272e-07
0.01114583333,4.309726478e-07
0.01116666667,-8.604911272e-08
0.0111875,-4.446244475e-07
0.01120833333,-1.017926934e-06
0.01122916667,-1.491771627e-06
0.01125,-1.989334123e-06
0.01127083333,-2.526168601e-06
0.01129166667,-3.24214102e-06
0.0113125,-3.750426913e-06
0.01133333333,-4.401821116e-06
0.01135416667,-4.78961465e-06
0.011375,-5.307744686e-06
0.01139583333,-5.723355116e-06
0.01141666667,-6.358366591e-06
0.0114375,-7.044473023e-06
0.01145833333,-7.771227502e-06
0.01147916667,-8.100981177e-06
0.0115,-8.434878509e-06
0.01152083333,-8.595789041e-06
0.01154166667,-8.997064469e-06
0.0115625,-9.490306184e-06
0.01158333333,-1.011636505e-05
0.01160416667,-1.0498351e-05
0.011625,-1.073067051e-05
0.01164583333,-1.0776831e-05
0.01166666667,-1.101404996e-05
0.0116875,-1.130069541e-05
0.01170833333,-1.181724474e-05
0.01172916667,-1.185328802e-05
0.01175,-1.180181425e-05
0.01177083333,-1.150862772e-05
0.01179166667,-1.137306845e-05
0.0118125,-1.143504778e-05
0.01183333333,-1.177857212e-05
0.01185416667,-1.182349479e-05
0.011875,-1.176629848e-05
0.01189583333,-1.149372292e-05
0.01191666667,-1.133654405e-05
0.0119375,-1.120360685e-05
0.01195833333,-1.127345058e-05
0.01197916667,-1.084783253e-05
0.012,-1.064206663e-05
0.01202083333,-1.000429984e-05
0.01204166667,-9.829762348e-06
0.0120625,-9.582081475e-06
0.01208333333,-9.735837011e-06
0.01210416667,-9.532022887e-06
0.012125,-9.062063327e-06
0.01214583333,-8.385440196e-06
0.01216666667,-8.029051969e-06
0.0121875,-7.600446679e-06
0.01220833333,-7.387558526e-06
0.01222916667,-6.796140042e-06
0.01225,-6.136141565e-06
0.01227083333,-5.153391157e-06
0.01229166667,-4.215894478e-06
0.0123125,-3.437829946e-06
0.01233333333,-3.298816182e-06
0.01235416667,-2.734340114e-06
0.012375,-2.199999699e-06
0.01239583333,-1.493659852e-06
0.01241666667,-8.956441206e-07
0.0124375,-3.722743713e-08
0.01245833333,5.275853709e-07
0.01247916667,1.155934115e-06
0.0125,1.962790975e-06
0.01252083333,2.841570677e-06
0.01254166667,3.560292726e-06
0.0125625,4.241810984e-06
0.01258333333,4.563663879e-06
0.01260416667,5.162806701e-06
0.012625,5.657834663e-06
0.01264583333,6.252438197e-06
0.01266666667,6.27954114e-06
0.0126875,6.537303761e-06
0.01270833333,6.443130587e-06
0.01272916667,6.656529877e-06
0.01275,7.028941582e-06
0.01277083333,8.082140084e-06
0.01279166667,8.505980077e-06
0.0128125,8.933548088e-06
0.01283333333,8.856432032e-06
0.01285416667,8.807648555e-06
0.012875,8.735451047e-06
0.01289583333,8.903944945e-06
0.01291666667,8.495972907e-06
0.0129375,8.199529475e-06
0.01295833333,7.553910109e-06
0.01297916667,7.136764907e-06
0.013,6.648619092e-06
0.01302083333,7.09390406e-06
0.01304166667,7.340362117e-06
0.0130625,7.780424312e-06
0.01308333333,7.564202861e-06
0.01310416667,7.478608495e-06
0.013125,7.551010185e-06
0.01314583333,7.819604434e-06
0.01316666667,7.810187526e-06
0.0131875,7.844550964e-06
0.01320833333,7.393024134e-06
0.01322916667,7.373728749e-06
0.01325,7.437654858e-06
0.01327083333,7.83210271e-06
0.01329166667,8.151895599e-06
0.0133125,9.05012439e-06
0.01333333333,9.738492736e-06
0.01335416667,1.007528408e-05
0.013375,9.995719665e-06
0.01339583333,1.068446909e-05
0.01341666667,1.073412659e-05
0.0134375,1.093811079e-05
0.01345833333,1.048591548e-05
0.01347916667,1.048163449e-05
0.0135,1.028008774e-05
0.01352083333,1.075402542e-05
0.01354166667,1.107032858e-05
0.0135625,1.141618941e-05
0.01358333333,1.099603287e-05
0.01360416667,1.086045722e-05
0.013625,1.022463221e-05
0.01364583333,9.86746636e-06
0.01366666667,9.287470675e-06
0.0136875,8.924414942e-06
0.01370833333,7.966760677e-06
0.01372916667,7.574784831e-06
0.01375,6.606544503e-06
0.01377083333,5.372456599e-06
0.01379166667,4.0571922e-06
0.0138125,3.255009688e-06
0.01383333333,2.542265975e-06
0.01385416667,1.904371857e-06
0.013875,9.810578376e-07
0.01389583333,4.51726919e-07
0.01391666667,-3.014101821e-07
0.0139375,-1.552550202e-06
0.01395833333,-3.196072157e-06
0.01397916667,-4.412270755e-06
0.014,-5.84468853e-06
0.01402083333,-6.066578862e-06
0.01404166667,-6.486409347e-06
0.0140625,-6.404473879e-06
0.01408333333,-7.209761861e-06
0.01410416667,-7.531308711e-06
0.014125,-8.084849469e-06
0.01414583333,-8.417845493e-06
0.01416666667,-8.830061233e-06
0.0141875,-9.565661458e-06
0.01420833333,-1.015999715e-05
0.01422916667,-1.059284114e-05
0.01425,-1.117923694e-05
0.01427083333,-1.110157518e-05
0.01429166667,-1.139108736e-05
0.0143125,-1.167897608e-05
0.01433333333,-1.241798236e-05
0.01435416667,-1.196073208e-05
0.014375,-1.117606189e-05
0.01439583333,-1.058146336e-05
0.01441666667,-1.064487788e-05
0.0144375,-1.059150418e-05
0.01445833333,-1.155595146e-05
0.01447916667,-1.26012801e-05
0.0145,-1.419397995e-05
0.01452083333,-1.417210115e-05
0.01454166667,-1.425826486e-05
0.0145625,-1.32071691e-05
0.01458333333,-1.244486521e-05
0.01460416667,-1.172785051e-05
0.014625,-1.189134673e-05
0.01464583333,-1.134298873e-05
0.01466666667,-1.183220593e-05
0.0146875,-1.172705925e-05
0.01470833333,-1.230165799e-05
0.01472916667,-1.312136465e-05
0.01475,-1.450747186e-05
0.01477083333,-1.496481218e-05
0.01479166667,-1.516177872e-05
0.0148125,-1.579043783e-05
0.01483333333,-1.614386383e-05
0.01485416667,-1.539444565e-05
0.014875,-1.464771958e-05
0.01489583333,-1.412418987e-05
0.01491666667,-1.337812773e-05
0.0149375,-1.256270116e-05
0.01495833333,-1.340221752e-05
0.01497916667,-1.472511485e-05
0.015,-1.780809907e-05
0.01502083333,-1.987145879e-05
0.01504166667,-2.14194115e-05
0.0150625,-2.082379615e-05
0.01508333333,-1.935801265e-05
0.01510416667,-1.740601147e-05
0.015125,-1.665022137e-05
0.01514583333,-1.711251934e-05
0.01516666667,-1.801640792e-05
0.0151875,-1.824448555e-05
0.01520833333,-1.761680323e-05
0.01522916667,-1.61712087e-05
0.01525,-1.650569175e-05
0.01527083333,-1.619626346e-05
0.01529166667,-1.719423017e-05
0.0153125,-1.73482149e-05
0.01533333333,-1.661582246e-05
0.01535416667,-1.45064505e-05
0.015375,-1.392803642e-05
0.01539583333,-1.211931522e-05
0.01541666667,-1.106003674e-05
0.0154375,-1.023942241e-05
0.01545833333,-8.854432963e-06
0.01547916667,-7.236955753e-06
0.0155,-5.736578714e-06
0.01552083333,-5.450640856e-06
0.01554166667,-5.006013453e-06
0.0155625,-5.393236279e-06
0.01558333333,-4.710847861e-06
0.01560416667,-1.356881512e-06
0.015625,7.163062037e-07
0.01564583333,3.539042609e-06
0.01566666667,3.899366675e-06
0.0156875,3.813299372e-06
0.01570833333,4.220526989e-06
0.01572916667,5.511371e-06
0.01575,7.426134744e-06
0.01577083333,8.789638741e-06
0.01579166667,8.697437806e-06
0.0158125,9.184886039e-06
0.01583333333,9.960500392e-06
0.01585416667,1.147257899e-05
0.015875,1.363025149e-05
0.01589583333,1.64777266e-05
0.01591666667,1.751351374e-05
0.0159375,1.876673196e-05
0.01595833333,1.882742436e-05
0.01597916667,2.054462493e-05
0.016,2.100976235e-05
0.01602083333,2.172404129e-05
0.01604166667,2.121868056e-05
0.0160625,2.185799895e-05
0.01608333333,2.184787991e-05
0.01610416667,2.239935748e-05
0.016125,2.34891977e-05
0.01614583333,2.548553311e-05
0.01616666667,2.708260581e-05
0.0161875,2.791986117e-05
0.01620833333,2.781208605e-05
0.01622916667,2.836307794e-05
0.01625,2.81895118e-05
0.01627083333,2.869976197e-05
0.01629166667,2.762614167e-05
0.0163125,2.673265772e-05
0.01633333333,2.48849683e-05
0.01635416667,2.415229756e-05
0.016375,2.353892341e-05
0.01639583333,2.341580694e-05
0.01641666667,2.285660958e-05
0.0164375,2.333041994e-05
0.01645833333,2.362015039e-05
0.01647916667,2.146329462e-05
0.0165,1.989423436e-05
0.01652083333,1.943180541e-05
0.01654166667,1.784243432e-05
0.0165625,1.675297426e-05
0.01658333333,1.392917329e-05
0.01660416667,1.298285588e-05
0.016625,1.080360289e-05
0.01664583333,1.11381205e-05
0.01666666667,1.013930523e-05
0.0166875,9.811709788e-06
0.01670833333,9.897803466e-06
0.01672916667,8.631145647e-06
0.01675,8.825075383e-06
0.01677083333,1.033274384e-05
0.01679166667,8.133796655e-06
0.0168125,7.096318768e-06
0.01683333333,6.465132174e-06
0.01685416667,5.753911864e-06
0.016875,5.525418601e-06
0.01689583333,7.011406524e-06
0.01691666667,6.511642823e-06
0.0169375,7.373889275e-06
0.01695833333,6.420675163e-06
0.01697916667,4.994356459e-06
0.017,2.665284228e-06
0.01702083333,1.943186362e-06
0.01704166667,1.493720447e-06
0.0170625,7.848134373e-07
0.01708333333,5.01464001e-07
0.01710416667,-1.003140824e-07
0.017125,-5.362230695e-07
0.01714583333,7.481398825e-07
0.01716666667,1.624916877e-07
0.0171875,8.254892236e-08
0.01720833333,-1.104781632e-06
0.01722916667,-1.367120035e-06
0.01725,-3.283554179e-06
0.01727083333,-4.047956736e-06
0.01729166667,-5.59503269e-06
0.0173125,-8.8427214e-06
0.01733333333,-1.157690258e-05
0.01735416667,-1.248185254e-05
0.017375,-1.25290735e-05
0.01739583333,-1.173503824e-05
0.01741666667,-9.509470146e-06
0.0174375,-6.737166132e-06
0.01745833333,-6.931032203e-06
0.01747916667,-7.027291304e-06
0.0175,-8.769757187e-06
0.01752083333,-1.341327516e-05
0.01754166667,-1.694401362e-05
0.0175625,-1.751853961e-05
0.01758333333,-1.778256774e-05
0.01760416667,-1.757464088e-05
0.017625,-1.592661647e-05
0.01764583333,-1.59876945e-05
0.01766666667,-1.547626744e-05
0.0176875,-1.325590711e-05
0.01770833333,-1.112610153e-05
0.01772916667,-7.833971722e-06
0.01775,-5.798037819e-06
0.01777083333,-4.784687917e-06
0.01779166667,-8.464478015e-06
0.0178125,-1.071184761e-05
0.01783333333,-1.310665448e-05
0.01785416667,-1.173025248e-05
0.017875,-1.234587216e-05
0.01789583333,-1.017579325e-05
0.01791666667,-1.003039506e-05
0.0179375,-7.601022844e-06
0.01795833333,-5.648162187e-06
0.01797916667,-1.431675628e-06
0.018,2.116818905e-06
0.01802083333,2.85456008e-06
0.01804166667,1.450791387e-06
0.0180625,1.957401764e-06
0.01808333333,1.699516361e-06
0.01810416667,1.377131412e-06
0.018125,5.956244422e-07
0.01814583333,1.718463864e-06
0.01816666667,3.210227987e-06
0.0181875,4.168043233e-06
0.01820833333,6.053675861e-06
0.01822916667,1.025876554e-05
0.01825,1.431606506e-05
0.01827083333,1.458725819e-05
0.01829166667,1.598148447e-05
0.0183125,1.58781495e-05
0.01833333333,1.449633055e-05
0.01835416667,1.527863787e-05
0.018375,1.592869557e-05
0.01839583333,1.769783194e-05
0.01841666667,1.723026435e-05
0.0184375,1.622508535e-05
0.01845833333,1.42263998e-05
0.01847916667,1.592815534e-05
0.0185,2.007768489e-05
0.01852083333,2.324868728e-05
0.01854166667,2.426453466e-05
0.0185625,2.436103568e-05
0.01858333333,2.327619768e-05
0.01860416667,2.260031397e-05
0.018625,2.388105531e-05
0.01864583333,2.631604366e-05
0.01866666667,2.515450069e-05
0.0186875,2.479171235e-05
0.01870833333,2.100874553e-05
0.01872916667,2.331523319e-05
0.01875,2.369916911e-05
0.01877083333,2.377673445e-05
0.01879166667,2.260489418e-05
0.0188125,2.097232937e-05
0.01883333333,1.721364424e-05
0.01885416667,1.543124745e-05
0.018875,1.619599607e-05
0.01889583333,1.682546645e-05
0.01891666667,1.697173502e-05
0.0189375,1.515074564e-05
0.01895833333,1.055810571e-05
0.01897916667,8.741076272e-06
0.019,7.937929695e-06
0.01902083333,8.761920071e-06
0.01904166667,7.019173609e-06
0.0190625,4.622415872e-06
0.01908333333,4.046023605e-07
0.01910416667,-2.249695171e-06
0.019125,-1.839179276e-06
0.01914583333,7.157495929e-07
0.01916666667,1.880723175e-06
0.0191875,4.706644177e-07
0.01920833333,-1.672629878e-06
0.01922916667,-6.568789104e-07
0.01925,-2.240506547e-06
0.01927083333,-2.056559424e-06
0.01929166667,-5.745340331e-06
0.0193125,-9.248607967e-06
0.01933333333,-1.298053485e-05
0.01935416667,-1.283159781e-05
0.019375,-1.108855395e-05
0.01939583333,-6.486422535e-06
0.01941666667,-3.873922651e-06
0.0194375,-5.70162365e-06
0.01945833333,-9.182993381e-06
0.01947916667,-1.069654991e-05
0.0195,-8.140173122e-06
0.01952083333,-3.331713287e-06
0.01954166667,-1.298010375e-06
0.0195625,-1.637913101e-06
0.01958333333,-5.920112471e-06
0.01960416667,-9.525709174e-06
0.019625,-1.251054073e-05
0.01964583333,-1.152567165e-05
0.01966666667,-9.625795428e-06
0.0196875,-1.026581413e-05
0.01970833333,-1.198215887e-05
0.01972916667,-1.450688978e-05
0.01975,-1.731152588e-05
0.01977083333,-1.72045111e-05
0.01979166667,-1.991738827e-05
0.0198125,-2.123750892e-05
0.01983333333,-2.473050154e-05
0.01985416667,-2.785560537e-05
0.019875,-2.755950663e-05
0.01989583333,-2.840724119e-05
0.01991666667,-2.718541691e-05
0.0199375,-2.595442675e-05
0.01995833333,-2.835021769e-05
0.01997916667,-3.437142732e-05
0.02,-3.65509477e-05
0.02002083333,-3.782832937e-05
0.02004166667,-3.82454964e-05
0.0200625,-3.844789899e-05
0.02008333333,-4.090010771e-05
0.02010416667,-4.545767297e-05
0.020125,-4.822072151e-05
0.02014583333,-4.598973828e-05
0.02016666667,-4.266831093e-05
0.0201875,-3.683329487e-05
0.02020833333,-3.263938197e-05
0.02022916667,-3.025590013e-05
0.02025,-3.05333815e-05
0.02027083333,-3.09645402e-05
0.02029166667,-3.393745646e-05
0.0203125,-3.404971721e-05
0.02033333333,-3.345554433e-05
0.02035416667,-3.011835543e-05
0.020375,-2.855199818e-05
0.02039583333,-2.576623956e-05
0.02041666667,-2.590424629e-05
0.0204375,-2.136170588e-05
0.02045833333,-1.403129681e-05
0.02047916667,-7.99838017e-06
0.0205,-1.083998541e-06
0.02052083333,2.94655365e-06
0.02054166667,6.80602534e-06
0.0205625,8.80828884e-06
0.02058333333,9.294439224e-06
0.02060416667,9.111008694e-06
0.020625,9.447913726e-06
0.02064583333,1.061046078e-05
0.02066666667,1.196197172e-05
0.0206875,1.743342727e-05
0.02070833333,2.349695569e-05
0.02072916667,3.069679587e-05
0.02075,3.615456808e-05
0.02077083333,3.901627133e-05
0.02079166667,3.970797115e-05
0.0208125,3.740388638e-05
0.02083333333,3.979020403e-05
0.02085416667,4.359217564e-05
0.020875,4.458097828e-05
0.02089583333,4.727279884e-05
0.02091666667,4.428740795e-05
0.0209375,4.257030741e-05
0.02095833333,4.439773329e-05
0.02097916667,4.787641592e-05
0.021,5.001037789e-05
0.02102083333,5.452126061e-05
0.02104166667,5.258008605e-05
0.0210625,5.191978562e-05
0.02108333333,5.175807746e-05
0.02110416667,5.07398363e-05
0.021125,4.94244814e-05
0.02114583333,4.772950342e-05
0.02116666667,4.440462362e-05
0.0211875,3.628746344e-05
0.02120833333,3.202780499e-05
0.02122916667,3.441238368e-05
0.02125,3.870103683e-05
0.02127083333,4.630359763e-05
0.02129166667,4.735407492e-05
0.0213125,4.57035203e-05
0.02133333333,4.731270019e-05
0.02135416667,5.089481783e-05
0.021375,5.40035835e-05
0.02139583333,5.827693531e-05
0.02141666667,5.806200352e-05
0.0214375,5.273088755e-05
0.02145833333,4.920513675e-05
0.02147916667,4.905679089e-05
0.0215,5.626811617e-05
0.02152083333,6.495453999e-05
0.02154166667,7.084162644e-05
0.0215625,7.332500536e-05
0.02158333333,7.307223132e-05
0.02160416667,7.45514626e-05
0.021625,7.725799514e-05
0.02164583333,8.36978943e-05
0.02166666667,8.138644625e-05
0.0216875,7.724620809e-05
0.02170833333,7.067978004e-05
0.02172916667,6.843792653e-05
0.02175,7.015598385e-05
0.02177083333,7.200114487e-05
0.02179166667,7.627259765e-05
0.0218125,7.757725689e-05
0.02183333333,7.294927491e-05
0.02185416667,6.99532975e-05
0.021875,6.884534378e-05
0.02189583333,7.270355127e-05
0.02191666667,7.150326564e-05
0.0219375,6.141384802e-05
0.02195833333,4.776575224e-05
0.02197916667,3.434535029e-05
0.022,2.649935777e-05
0.02202083333,2.996349576e-05
0.02204166667,3.33748103e-05
0.0220625,3.456775812e-05
0.02208333333,3.435054896e-05
0.02210416667,3.026396371e-05
0.022125,2.781140211e-05
0.02214583333,3.010012188e-05
0.02216666667,2.786004916e-05
0.0221875,2.265301737e-05
0.02220833333,1.098591747e-05
0.02222916667,2.247121301e-06
0.02225,-1.729138603e-06
0.02227083333,-4.888352123e-07
0.02229166667,1.634201908e-06
0.0223125,1.127256837e-06
0.02233333333,-1.100346708e-06
0.02235416667,-5.046484148e-06
0.022375,-2.23016832e-06
0.02239583333,7.731960068e-06
0.02241666667,1.573407644e-05
0.0224375,1.879412957e-05
0.02245833333,1.199260441e-05
0.02247916667,-3.729423042e-06
0.0225,-2.04365715e-05
0.02252083333,-2.659121674e-05
0.02254166667,-2.645707718e-05
0.0225625,-1.514775795e-05
0.02258333333,-6.052090612e-06
0.02260416667,-1.753018296e-06
0.022625,-1.304113539e-06
0.02264583333,1.717256964e-06
0.02266666667,8.718016034e-06
0.0226875,2.09610771e-05
0.02270833333,2.589178621e-05
0.02272916667,2.745592792e-05
0.02275,2.433877671e-05
0.02277083333,2.008528099e-05
0.02279166667,2.115513416e-05
0.0228125,2.367009438e-05
0.02283333333,2.968580884e-05
0.02285416667,3.394666419e-05
0.022875,3.534963616e-05
0.02289583333,4.297638588e-05
0.02291666667,5.436576612e-05
0.0229375,7.106024714e-05
0.02295833333,8.308817632e-05
0.02297916667,8.886065916e-05
0.023,8.701629122e-05
0.02302083333,8.309800614e-05
0.02304166667,8.323023212e-05
0.0230625,8.879722736e-05
0.02308333333,0.000102396305
0.02310416667,0.0001123902475
0.023125,0.0001112141763
0.02314583333,0.0001136504216
0.02316666667,0.0001161103864
0.0231875,0.0001205017543
0.02320833333,0.0001368642988
0.02322916667,0.00014719725
0.02325,0.0001514276664
0.02327083333,0.0001547813881
0.02329166667,0.0001508932619
0.0233125,0.0001468975388
0.02333333333,0.0001483673404
0.02335416667,0.0001489209535
0.023375,0.0001456969185
0.02339583333,0.0001464436209
0.02341666667,0.0001419955952
0.0234375,0.0001379881869
0.02345833333,0.0001467832481
0.02347916667,0.0001511840965
0.0235,0.0001480468054
0.02352083333,0.0001442642388
0.02354166667,0.0001320724114
0.0235625,0.0001256783289
0.02358333333,0.0001233707881
0.02360416667,0.0001241921273
0.023625,0.0001263962185
0.02364583333,0.0001256909309
0.02366666667,0.0001191438132
0.0236875,0.0001130309902
0.02370833333,0.0001080092043
0.02372916667,0.0001105457995
0.02375,0.0001122782269
0.02377083333,0.0001176907608
0.02379166667,0.0001151782635
0.0238125,0.0001149566669
0.02383333333,0.0001073053136
0.02385416667,0.0001053595697
0.023875,0.0001070315848
0.02389583333,0.0001100444206
0.02391666667,0.0001097809727
0.0239375,0.0001088273857
0.02395833333,0.0001156975777
0.02397916667,0.0001237400138
0.024,0.0001339670853
0.02402083333,0.0001379081514
0.02404166667,0.0001391277037
0.0240625,0.0001352165855
0.02408333333,0.0001341026946
0.02410416667,0.0001378388406
0.024125,0.0001467264374
0.02414583333,0.0001513226453
0.02416666667,0.0001523524697
0.0241875,0.0001556656644
0.02420833333,0.0001575937058
0.02422916667,0.0001606130827
0.02425,0.0001659542904
0.02427083333,0.0001722659508
0.02429166667,0.0001739401196
0.0243125,0.0001725786715
0.02433333333,0.0001678895642
0.02435416667,0.0001646361925
0.024375,0.0001681058056
0.02439583333,0.0001744759065
0.02441666667,0.0001736674312
0.0244375,0.0001704908354
0.02445833333,0.0001690901991
0.02447916667,0.0001693260419
0.0245,0.000172523185
0.02452083333,0.0001773527329
0.02454166667,0.0001811307739
0.0245625,0.0001786517532
0.02458333333,0.0001719241991
0.02460416667,0.0001700603316
0.024625,0.0001742956229
0.02464583333,0.0001826266525
0.02466666667,0.0001946513075
0.0246875,0.0002020320826
0.02470833333,0.0002087365719
0.02472916667,0.0002116987889
0.02475,0.0002137167176
0.02477083333,0.0002269964752
0.02479166667,0.0002400638768
0.0248125,0.0002482836135
0.02483333333,0.0002537864784
0.02485416667,0.0002594130638
0.024875,0.0002666480141
0.02489583333,0.00027785165
0.02491666667,0.0002944815787
0.0249375,0.0003132409765
0.02495833333,0.0003307443112
0.02497916667,0.0003492735559
0.025,0.0003552397247
0.02502083333,0.000361776154
0.02504166667,0.000362891471
0.0250625,0.0003614377929
0.02508333333,0.0003635276225
0.02510416667,0.0003666237171
0.025125,0.0003705518902
0.02514583333,0.0003764955909
0.02516666667,0.0003835537937
0.0251875,0.0003879044089
0.02520833333,0.0003936236026
0.02522916667,0.0003940516326
0.02525,0.0003902927565
0.02527083333,0.0003850427747
0.02529166667,0.0003843834274
0.0253125,0.0003791077761
0.02533333333,0.0003769368341
0.02535416667,0.0003741979017
0.025375,0.0003698374785
0.02539583333,0.0003688824363
0.02541666667,0.0003683136893
0.0254375,0.0003654836037
0.02545833333,0.0003684996627
0.02547916667,0.0003728484153
0.0255,0.0003732239711
0.02552083333,0.0003709106822
0.02554166667,0.0003616897156
0.0255625,0.0003495893034
0.02558333333,0.0003477254068
0.02560416667,0.0003458164574
0.025625,0.0003391485079
0.02564583333,0.0003367880709
0.02566666667,0.0003283650731
0.0256875,0.0003231983574
0.02570833333,0.0003224250977
0.02572916667,0.0003222919186
0.02575,0.0003180804488
0.02577083333,0.0003192951845
0.02579166667,0.000310367468
0.0258125,0.0002933608484
0.02583333333,0.0002847758005
0.02585416667,0.0002806448902
0.025875,0.0002733431756
0.02589583333,0.0002696393349
0.02591666667,0.0002602182212
0.0259375,0.0002482282289
0.02595833333,0.0002424184786
0.02597916667,0.000244190247
0.026,0.0002410901361
0.02602083333,0.0002414728806
0.02604166667,0.0002314577141
0.0260625,0.0002113791707
0.02608333333,0.0001983245893
0.02610416667,0.000188361184
0.026125,0.0001915611792
0.02614583333,0.0001943705865
0.02616666667,0.0001860083285
0.0261875,0.000176921516
0.02620833333,0.0001700966823
0.02622916667,0.0001616711088
0.02625,0.0001664322626
0.02627083333,0.0001699827699
0.02629166667,0.0001708209165
0.0263125,0.000163099714
0.02633333333,0.0001587192819
0.02635416667,0.0001583496924
0.026375,0.0001613887434
0.02639583333,0.0001640472619
0.02641666667,0.000166351645
0.0264375,0.0001612991909
0.02645833333,0.0001631621853
0.02647916667,0.0001639699767
0.0265,0.000177036316
0.02652083333,0.0001887288963
0.02654166667,0.0001891560969
0.0265625,0.0001789151138
0.02658333333,0.0001661211718
0.02660416667,0.0001636878878
0.026625,0.000172101034
0.02664583333,0.0001851623965
0.02666666667,0.0001910575666
0.0266875,0.0001879077463
0.02670833333,0.0001807468507
0.02672916667,0.0001819465251
0.02675,0.0001922213851
0.02677083333,0.000208195459
0.02679166667,0.0002127886255
0.0268125,0.000205466742
0.02683333333,0.0001861256605
0.02685416667,0.0001696490508
0.026875,0.0001710620272
0.02689583333,0.0001872424473
0.02691666667,0.0001930901781
0.0269375,0.0001901379728
0.02695833333,0.0001824967185
0.02697916667,0.0001695668616
0.027,0.000166703423
0.02702083333,0.0001837667951
0.02704166667,0.0001934377506
0.0270625,0.0001839259348
0.02708333333,0.0001683981973
0.02710416667,0.0001497797784
0.027125,0.0001475691533
0.02714583333,0.00016302726
0.02716666667,0.0001726896444
0.0271875,0.0001783819753
0.02720833333,0.000166857295
0.02722916667,0.0001503536187
0.02725,0.0001551371533
0.02727083333,0.0001766247442
0.02729166667,0.0001985789422
0.0273125,0.0002027557639
0.02733333333,0.0001895441965
0.02735416667,0.0001631487539
0.027375,0.000154221867
0.02739583333,0.0001641576673
0.02741666667,0.0001874114241
0.0274375,0.0002078421821
0.02745833333,0.0002071132621
0.02747916667,0.0001827090746
0.0275,0.0001682195143
0.02752083333,0.0001672563376
0.02754166667,0.0001858186733
0.0275625,0.0002062157146
0.02758333333,0.0002130348876
0.02760416667,0.0002014865167
0.027625,0.0001855847222
0.02764583333,0.0001806117507
0.02766666667,0.0001891941938
0.0276875,0.0002132705413
0.02770833333,0.0002290086704
0.02772916667,0.0002242003102
0.02775,0.0002130252542
0.02777083333,0.0002081563143
0.02779166667,0.0002112791408
0.0278125,0.0002166977793
0.02783333333,0.0002151278022
0.02785416667,0.0001981332171
0.027875,0.0001784595806
0.02789583333,0.000175312045
0.02791666667,0.0001708134514
0.0279375,0.0001727248309
0.02795833333,0.000180098461
0.02797916667,0.0001616825321
0.028,0.0001403409115
0.02802083333,0.0001320387528
0.02804166667,0.0001212081042
0.0280625,0.0001157597508
0.02808333333,0.0001157532679
0.02810416667,9.984766075e-05
0.028125,8.415884076e-05
0.02814583333,6.78782817e-05
0.02816666667,4.709399218e-05
0.0281875,4.364286724e-05
0.02820833333,4.624746725e-05
0.02822916667,4.429691398e-05
0.02825,3.928564911e-05
0.02827083333,3.691473466e-05
0.02829166667,2.334758756e-05
0.0283125,1.403078932e-05
0.02833333333,9.762075024e-06
0.02835416667,-1.009295374e-06
0.028375,2.52477912e-06
0.02839583333,-1.693443664e-06
0.02841666667,-1.697527114e-05
0.0284375,-1.803544728e-05
0.02845833333,-6.345469956e-06
0.02847916667,-4.555394298e-06
0.0285,-6.048821888e-06
0.02852083333,-4.029327101e-06
0.02854166667,-1.719882857e-05
0.0285625,-3.403845403e-05
0.02858333333,-6.5173037e-05
0.02860416667,-9.3433242e-05
0.028625,-0.000105112762
0.02864583333,-9.224509995e-05
0.02866666667,-9.355237125e-05
0.0286875,-9.055076225e-05
0.02870833333,-0.0001159950916
0.02872916667,-0.0001687432814
0.02875,-0.0002127215121
0.02877083333,-0.000215919179
0.02879166667,-0.0002194385452
0.0288125,-0.0002242892369
0.02883333333,-0.0002353738237
0.02885416667,-0.000283434696
0.028875,-0.0003438464191
0.02889583333,-0.0003577151801
0.02891666667,-0.0003699332592
0.0289375,-0.000358910358
0.02895833333,-0.0003324797435
0.02897916667,-0.000348040805
0.029,-0.0003851701622
0.02902083333,-0.0004034299054
0.02904166667,-0.0004258982372
0.0290625,-0.0004353396944
0.02908333333,-0.0004473046283
0.02910416667,-0.0004667035537
0.029125,-0.0004945128458
0.02914583333,-0.0004828802776
0.02916666667,-0.0004872003919
0.0291875,-0.0004536297638
0.02920833333,-0.0004260946298
0.02922916667,-0.0004228424514
0.02925,-0.0004464782542
0.02927083333,-0.0004873756552
0.02929166667,-0.0004988600267
0.0293125,-0.0005112159997
0.02933333333,-0.0004801260075
0.02935416667,-0.0004826518707
0.029375,-0.000528929173
0.02939583333,-0.0005434503546
0.02941666667,-0.0006052148528
0.0294375,-0.0006144540384
0.02945833333,-0.0005900679389
0.02947916667,-0.0005166530609
0.0295,-0.0004955706536
0.02952083333,-0.0004903005902
0.02954166667,-0.0005550083006
0.0295625,-0.0006389640621
0.02958333333,-0.0006676843041
0.02960416667,-0.0007240849081
0.029625,-0.0006949533708
0.02964583333,-0.000692730071
0.02966666667,-0.0006775928196
0.0296875,-0.0007004658692
0.02970833333,-0.0007190153701
0.02972916667,-0.000652429997
0.02975,-0.0006207639817
0.02977083333,-0.0005056053633
0.02979166667,-0.0005172208766
0.0298125,-0.0005330446875
0.02983333333,-0.0005712546408
0.02985416667,-0.0006528785452
0.029875,-0.0005856325151
0.02989583333,-0.0004288093187
0.02991666667,-0.0002940125414
0.0299375,-0.0004217076057
0.02995833333,-0.0007534100441
0.02997916667,-0.001070362399
0.03,0.001402754919
0.03002083333,0.001155680162
0.03004166667,0.0007880119956
0.0300625,0.0006577841705
0.03008333333,0.0007647400489
0.03010416667,0.0009415163076
0.030125,0.001012555906
0.03014583333,0.000989821041
0.03016666667,0.0008168009226
0.0301875,0.0008693772834
0.03020833333,0.0008024603012
0.03022916667,0.001053039334
0.03025,0.001195646124
0.03027083333,0.001312090666
0.03029166667,0.001209834707
0.0303125,0.001396914246
0.03033333333,0.001329725725
0.03035416667,0.001353634172
0.030375,0.001406554948
0.03039583333,0.001403409988
0.03041666667,0.00137036352
0.0304375,0.001225277781
0.03045833333,0.001150191762
0.03047916667,0.00116843346
0.0305,0.001211574767
0.03052083333,0.001275438117
0.03054166667,0.001309740939
0.0305625,0.00121293799
0.03058333333,0.001166893751
0.03060416667,0.001127492171
0.030625,0.001075905515
0.03064583333,0.00105587719
0.03066666667,0.001010438194
0.0306875,0.0009768729797
0.03070833333,0.0009084046469
0.03072916667,0.000829911558
0.03075,0.0007734309766
0.03077083333,0.0006871497026
0.03079166667,0.0007297432167
0.0308125,0.0007035473827
0.03083333333,0.0006719609955
0.03085416667,0.0005512297503
0.030875,0.000504056341
0.03089583333,0.0004784696212
0.03091666667,0.0004507001431
0.0309375,0.0003211146104
0.03095833333,0.0002090948255
0.03097916667,0.000137178984
0.031,7.925598766e-06
0.03102083333,2.681609658e-05
0.03104166667,-3.525175998e-05
0.0310625,-0.0001002493809
0.03108333333,-0.0002657508303
0.03110416667,-0.000304303132
0.031125,-0.0004284051538
0.03114583333,-0.0005394089967
0.03116666667,-0.0005884308484
0.0311875,-0.0007083177334
0.03120833333,-0.0007564660045
0.03122916667,-0.0008589245845
0.03125,-0.0009544148925
0.03127083333,-0.001099089277
0.03129166667,-0.001169272582
0.0313125,-0.001163341221
0.03133333333,-0.00126037607
0.03135416667,-0.001302001765
0.031375,-0.001384862699
0.03139583333,-0.00145614543
0.03141666667,-0.001564713311
0.0314375,-0.001670003403
0.03145833333,-0.001763968146
0.03147916667,-0.001865184284
0.0315,-0.00200170232
0.03152083333,-0.001996819861
0.03154166667,-0.002021038439
0.0315625,-0.002128489316
0.03158333333,-0.002169322222
0.03160416667,-0.002236193279
0.031625,-0.002243647119
0.03164583333,-0.002256798325
0.03166666667,-0.002312352415
0.0316875,-0.002374674426
0.03170833333,-0.002409288427
0.03172916667,-0.002464463469
0.03175,-0.002520332811
0.03177083333,-0.002510564169
0.03179166667,-0.002569708973
0.0318125,-0.002584490227
0.03183333333,-0.00257941056
0.03185416667,-0.002615275327
0.031875,-0.002599273808
0.03189583333,-0.002653376432
0.03191666667,-0.002603122266
0.0319375,-0.002595852129
0.03195833333,-0.00259741093
0.03197916667,-0.00260815653
0.032,-0.002574624261
0.03202083333,-0.002590130083
0.03204166667,-0.002594163176
0.0320625,-0.002591627184
0.03208333333,-0.002606551396
0.03210416667,-0.002617215971
0.032125,-0.002620011568
0.03214583333,-0.002633712022
0.03216666667,-0.002582035493
0.0321875,-0.002568425611
0.03220833333,-0.002539306879
0.03222916667,-0.002521555871
0.03225,-0.002488670638
0.03227083333,-0.002518178662
0.03229166667,-0.002469862113
0.0323125,-0.002437645337
0.03233333333,-0.002423785627
0.03235416667,-0.002403037855
0.032375,-0.002434358932
0.03239583333,-0.002391592367
0.03241666667,-0.002431024099
0.0324375,-0.002401913982
0.03245833333,-0.002345739864
0.03247916667,-0.002270411467
0.0325,-0.002292509656
0.03252083333,-0.002309103496
0.03254166667,-0.002275330946
0.0325625,-0.002235025633
0.03258333333,-0.002210378647
0.03260416667,-0.002230023965
0.032625,-0.002299552551
0.03264583333,-0.002336392645
0.03266666667,-0.002391187008
0.0326875,-0.002417968819
0.03270833333,-0.00250445446
0.03272916667,-0.002478644019
0.03275,-0.002549330238
0.03277083333,-0.002559563378
0.03279166667,-0.002591155004
0.0328125,-0.00260623754
0.03283333333,-0.002624152694
0.03285416667,-0.002618651837
0.032875,-0.002692973008
0.03289583333,-0.00278371782
0.03291666667,-0.002852990758
0.0329375,-0.002893957542
0.03295833333,-0.002989340574
0.03297916667,-0.003118767636
0.033,-0.003220206825
0.03302083333,-0.003347653663
0.03304166667,-0.003385634394
0.0330625,-0.00350209116
0.03308333333,-0.00348455552
0.03310416667,-0.003517032135
0.033125,-0.003535012715
0.03314583333,-0.003597822273
0.03316666667,-0.003689392004
0.0331875,-0.00376392575
0.03320833333,-0.003737917868
0.03322916667,-0.003777035512
0.03325,-0.003768614028
0.03327083333,-0.003823553678
0.03329166667,-0.003768929048
0.0333125,-0.003715542378
0.03333333333,-0.003684301162
0.03335416667,-0.003754316829
0.033375,-0.003757830011
0.03339583333,-0.003843429498
0.03341666667,-0.003926972393
0.0334375,-0.003919267561
0.03345833333,-0.003939887043
0.03347916667,-0.003980138339
0.0335,-0.003942533396
0.03352083333,-0.00397400884
0.03354166667,-0.004110556561
0.0335625,-0.004142920021
0.03358333333,-0.004221526906
0.03360416667,-0.004328170791
0.033625,-0.004451169632
0.03364583333,-0.004498843104
0.03366666667,-0.004626056645
0.0336875,-0.004705326166
0.03370833333,-0.004817052744
0.03372916667,-0.004858853761
0.03375,-0.004935990553
0.03377083333,-0.005048871972
0.03379166667,-0.005159944296
0.0338125,-0.005227842368
0.03383333333,-0.005330118351
0.03385416667,-0.005357724614
0.033875,-0.005458238069
0.03389583333,-0.005530838855
0.03391666667,-0.005684697535
0.0339375,-0.005715108011
0.03395833333,-0.005836586002
0.03397916667,-0.005965287331
0.034,-0.006081218831
0.03402083333,-0.006140192039
0.03404166667,-0.006212597247
0.0340625,-0.006212784909
0.03408333333,-0.006257534958
0.03410416667,-0.006193649489
0.034125,-0.006219720934
0.03414583333,-0.006155488547
0.03416666667,-0.00613083737
0.0341875,-0.006054023746
0.03420833333,-0.006092954893
0.03422916667,-0.006029965356
0.03425,-0.006037448533
0.03427083333,-0.006015810184
0.03429166667,-0.005881969817
0.0343125,-0.005983490031
0.03433333333,-0.005805417895
0.03435416667,-0.005796941463
0.034375,-0.005748409312
0.03439583333,-0.005736472085
0.03441666667,-0.005695498548
0.0344375,-0.005612657871
0.03445833333,-0.005559352227
0.03447916667,-0.005538098514
0.0345,-0.005502529908
0.03452083333,-0.005500850268
0.03454166667,-0.005495320074
0.0345625,-0.005541522056
0.03458333333,-0.005530555267
0.03460416667,-0.005552282557
0.034625,-0.00546699902
0.03464583333,-0.005485964008
0.03466666667,-0.005433807615
0.0346875,-0.005436406471
0.03470833333,-0.005394301377
0.03472916667,-0.005444304086
0.03475,-0.005420067813
0.03477083333,-0.00548075838
0.03479166667,-0.0054596751
0.0348125,-0.005507996771
0.03483333333,-0.005512661766
0.03485416667,-0.005451158155
0.034875,-0.005440804176
0.03489583333,-0.005464310292
0.03491666667,-0.005441900343
0.0349375,-0.005466504022
0.03495833333,-0.005441854242
0.03497916667,-0.005500779487
0.035,-0.005684027914
0.03502083333,-0.005671639461
0.03504166667,-0.005819048733
0.0350625,-0.005871417932
0.03508333333,-0.005987119861
0.03510416667,-0.006021678448
0.035125,-0.006142765749
0.03514583333,-0.006189981941
0.03516666667,-0.006305335555
0.0351875,-0.006354251411
0.03520833333,-0.006466225721
0.03522916667,-0.006446323358
0.03525,-0.006492950954
0.03527083333,-0.006585306488
0.03529166667,-0.006541595794
0.0353125,-0.006545334589
0.03533333333,-0.006697058678
0.03535416667,-0.006631217431
0.035375,-0.006699012592
0.03539583333,-0.006734532304
0.03541666667,-0.006690763403
0.0354375,-0.006779306103
0.03545833333,-0.006839421578
0.03547916667,-0.006727157161
0.0355,-0.006790521089
0.03552083333,-0.006720422301
0.03554166667,-0.006729245186
0.0355625,-0.006692260038
0.03558333333,-0.006688232068
0.03560416667,-0.006672067568
0.035625,-0.006698087323
0.03564583333,-0.00667688204
0.03566666667,-0.006740006153
0.0356875,-0.006800275296
0.03570833333,-0.006874383427
0.03572916667,-0.00691293506
0.03575,-0.006935955025
0.03577083333,-0.006975182798
0.03579166667,-0.006942580454
0.0358125,-0.006956081372
0.03583333333,-0.006954343524
0.03585416667,-0.006947629619
0.035875,-0.006959587801
0.03589583333,-0.007006265223
0.03591666667,-0.00708854245
0.0359375,-0.007162048947
0.03595833333,-0.007246223744
0.03597916667,-0.007326645777
0.036,-0.007339822594
0.03602083333,-0.007436800748
0.03604166667,-0.007393570151
0.0360625,-0.007528254762
0.03608333333,-0.007579564117
0.03610416667,-0.007483751513
0.036125,-0.007403186522
0.03614583333,-0.007517930586
0.03616666667,-0.007472864818
0.0361875,-0.007248724345
0.03620833333,-0.007362411823
0.03622916667,-0.007468195632
0.03625,-0.007298977114
0.03627083333,-0.007329754531
0.03629166667,-0.007237080019
0.0363125,-0.007233114913
0.03633333333,-0.007123318966
0.03635416667,-0.007210962474
0.036375,-0.007133445702
0.03639583333,-0.007198225707
0.03641666667,-0.007224448491
0.0364375,-0.007196261082
0.03645833333,-0.007256064564
0.03647916667,-0.007209664211
0.0365,-0.007124346681
0.03652083333,-0.007119144779
0.03654166667,-0.006990351714
0.0365625,-0.007010551635
0.03658333333,-0.006950743496
0.03660416667,-0.006937100552
0.036625,-0.006972847972
0.03664583333,-0.006938959472
0.03666666667,-0.006863682531
0.0366875,-0.006825197954
0.03670833333,-0.00672120275
0.03672916667,-0.006706257351
0.03675,-0.006563994568
0.03677083333,-0.006429777946
0.03679166667,-0.006309825927
0.0368125,-0.00624236092
0.03683333333,-0.006119188387
0.03685416667,-0.006027777214
0.036875,-0.005849762354
0.03689583333,-0.005754085258
0.03691666667,-0.005598923191
0.0369375,-0.005514790304
0.03695833333,-0.005373374093
0.03697916667,-0.005186792929
0.037,-0.005052805413
0.03702083333,-0.004937991966
0.03704166667,-0.004807404242
0.0370625,-0.004679251462
0.03708333333,-0.004667943344
0.03710416667,-0.004467928782
0.037125,-0.004464977421
0.03714583333,-0.004300163593
0.03716666667,-0.004240183625
0.0371875,-0.00407168828
0.03720833333,-0.004071529489
0.03722916667,-0.003876370145
0.03725,-0.003772835946
0.03727083333,-0.003729500109
0.03729166667,-0.003549909452
0.0373125,-0.003572086338
0.03733333333,-0.003510447452
0.03735416667,-0.003425755538
0.037375,-0.003421101486
0.03739583333,-0.003298766911
0.03741666667,-0.003374570981
0.0374375,-0.003153017489
0.03745833333,-0.003195778467
0.03747916667,-0.003090550425
0.0375,-0.003084551543
0.03752083333,-0.002929044422
0.03754166667,-0.002925473033
0.0375625,-0.00291791535
0.03758333333,-0.002877160674
0.03760416667,-0.002777429996
0.037625,-0.00271148514
0.03764583333,-0.00263622473
0.03766666667,-0.002595577622
0.0376875,-0.002526059048
0.03770833333,-0.002478884999
0.03772916667,-0.002451461041
0.03775,-0.002401582198
0.03777083333,-0.002444745973
0.03779166667,-0.002433175221
0.0378125,-0.002473101951
0.03783333333,-0.002388255438
0.03785416667,-0.002350901952
0.037875,-0.002262735739
0.03789583333,-0.002227968536
0.03791666667,-0.002235904103
0.0379375,-0.002228817903
0.03795833333,-0.002259571105
0.03797916667,-0.002205184428
0.038,-0.002230491489
0.03802083333,-0.002213085536
0.03804166667,-0.002161396202
0.0380625,-0.002313870238
0.03808333333,-0.002096095355
0.03810416667,-0.002144327387
0.038125,-0.002086068504
0.03814583333,-0.002137040021
0.03816666667,-0.002041229978
0.0381875,-0.002063049003
0.03820833333,-0.001866118168
0.03822916667,-0.001802607439
0.03825,-0.001586401602
0.03827083333,-0.001519370358
0.03829166667,-0.001365076751
0.0383125,-0.001294923713
0.03833333333,-0.001117318403
0.03835416667,-0.001118842163
0.038375,-0.0009932137327
0.03839583333,-0.000970107154
0.03841666667,-0.0007860619808
0.0384375,-0.0006760105025
0.03845833333,-0.0005201225867
0.03847916667,-0.0001985179842
0.0385,-0.000120169716
0.03852083333,-1.236808021e-05
0.03854166667,0.000299404317
0.0385625,0.0004880877095
0.03858333333,0.0006751051405
0.03860416667,0.0008676436846
0.038625,0.001015867689
0.03864583333,0.001156522892
0.03866666667,0.001213497599
0.0386875,0.001522740582
0.03870833333,0.001544575673
0.03872916667,0.001791071612
0.03875,0.001924639335
0.03877083333,0.002125825267
0.03879166667,0.002236805158
0.0388125,0.002458884846
0.03883333333,0.002545358846
0.03885416667,0.002728915773
0.038875,0.002729699947
0.03889583333,0.00295008719
0.03891666667,0.002969305962
0.0389375,0.003079759888
0.03895833333,0.00309540052
0.03897916667,0.003280151403
0.039,0.00338365417
0.03902083333,0.003524579806
0.03904166667,0.003621118376
0.0390625,0.003770562354
0.03908333333,0.003872128902
0.03910416667,0.003969532438
0.039125,0.00422672648
0.03914583333,0.004451687913
0.03916666667,0.004624189809
0.0391875,0.004688919522
0.03920833333,0.004869352095
0.03922916667,0.004953785334
0.03925,0.005055605434
0.03927083333,0.005134592764
0.03929166667,0.005221520085
0.0393125,0.004851303063
0.03933333333,0.005176762585
0.03935416667,0.005025754683
0.039375,0.005374948494
0.03939583333,0.005679483525
0.03941666667,0.006015283521
0.0394375,0.006124333013
0.03945833333,0.006557906978
0.03947916667,0.00686973799
0.0395,0.007042843383
0.03952083333,0.00715538254
0.03954166667,0.007495794445
0.0395625,0.007576505188
0.03958333333,0.007796425372
0.03960416667,0.007785880938
0.039625,0.007938069291
0.03964583333,0.007819380611
0.03966666667,0.007892496884
0.0396875,0.007842898369
0.03970833333,0.007980953902
0.03972916667,0.007874695584
0.03975,0.007996330038
0.03977083333,0.007941784337
0.03979166667,0.007904355414
0.0398125,0.007920616306
0.03983333333,0.007834220305
0.03985416667,0.007689109072
0.039875,0.007652340457
0.03989583333,0.007553021889
0.03991666667,0.007433818653
0.0399375,0.007413427345
0.03995833333,0.007451186888
0.03997916667,0.00742777437
0.04,0.007422850467
0.04002083333,0.007459006738
0.04004166667,0.007459066343
0.0400625,0.007563761435
0.04008333333,0.007550681476
0.04010416667,0.007645278703
0.040125,0.007676003501
0.04014583333,0.007827924564
0.04016666667,0.00782463979
0.0401875,0.007999757305
0.04020833333,0.00795791205
0.04022916667,0.008029025979
0.04025,0.007901555859
0.04027083333,0.008045543917
0.04029166667,0.008053652011
0.0403125,0.00799673982
0.04033333333,0.007898642682
0.04035416667,0.008274406195
0.040375,0.008298660628
0.04039583333,0.008453886025
0.04041666667,0.008317757398
0.0404375,0.008192604408
0.04045833333,0.008389638737
0.04047916667,0.008612820879
0.0405,0.008572063409
0.04052083333,0.008741049096
0.04054166667,0.00882994011
0.0405625,0.008802056313
0.04058333333,0.008932611905
0.04060416667,0.008988637477
0.040625,0.00896826759
0.04064583333,0.008898640051
0.04066666667,0.008965285495
0.0406875,0.008976968937
0.04070833333,0.008970227093
0.04072916667,0.009006697685
0.04075,0.009151307866
0.04077083333,0.009111181833
0.04079166667,0.009224740788
0.0408125,0.00915309228
0.04083333333,0.009292655624
0.04085416667,0.009350811131
0.040875,0.009499011561
0.04089583333,0.009635047987
0.04091666667,0.009772474878
0.0409375,0.009829747491
0.04095833333,0.01017277315
0.04097916667,0.01034821849
0.041,0.01051139552
0.04102083333,0.01062561572
0.04104166667,0.01081215683
0.0410625,0.01100313291
0.04108333333,0.01120239776
0.04110416667,0.01137513388
0.041125,0.01159196254
0.04114583333,0.01170622185
0.04116666667,0.01201613992
0.0411875,0.01220795605
0.04120833333,0.01241563633
0.04122916667,0.01269876957
0.04125,0.01288531162
0.04127083333,0.01304373704
0.04129166667,0.01324171759
0.0413125,0.01338198408
0.04133333333,0.01373426337
0.04135416667,0.01384095848
0.041375,0.01412863191
0.04139583333,0.01421096548
0.04141666667,0.01443225797
0.0414375,0.01463859715
0.04145833333,0.01471509226
0.04147916667,0.01493894216
0.0415,0.01503891218
0.04152083333,0.01527707372
0.04154166667,0.01536563784
0.0415625,0.01564916037
0.04158333333,0.01592863724
0.04160416667,0.01611314528
0.041625,0.01621275768
0.04164583333,0.01638003252
0.04166666667,0.01652642712
0.0416875,0.01661340706
0.04170833333,0.01661394723
0.04172916667,0.01671571285
0.04175,0.01678143814
0.04177083333,0.01686964743
0.04179166667,0.01682993583
0.0418125,0.01692496799
0.04183333333,0.01695477776
0.04185416667,0.01700855233
0.041875,0.01686823927
0.04189583333,0.01679159142
0.04191666667,0.01670784503
0.0419375,0.01662924699
0.04195833333,0.01657824777
0.04197916667,0.01654614322
0.042,0.0164563451
0.04202083333,0.01648508012
0.04204166667,0.01646804996
0.0420625,0.0164378453
0.04208333333,0.01641931571
0.04210416667,0.01642312482
0.042125,0.01636056416
0.04214583333,0.01638471521
0.04216666667,0.01636264846
0.0421875,0.01638182998
0.04220833333,0.01629561186
0.04222916667,0.01625839435
0.04225,0.0162842311
0.04227083333,0.01631536335
0.04229166667,0.01632675529
0.0423125,0.0164246019
0.04233333333,0.01652527228
0.04235416667,0.01654428989
0.042375,0.01660617627
0.04239583333,0.01658727601
0.04241666667,0.01671142876
0.0424375,0.01673278958
0.04245833333,0.0168682076
0.04247916667,0.01702298038
0.0425,0.01718189381
0.04252083333,0.01734009013
0.04254166667,0.01749967411
0.0425625,0.01768811978
0.04258333333,0.01793361269
0.04260416667,0.0180566404
0.042625,0.01829753071
0.04264583333,0.01848031022
0.04266666667,0.01870305464
0.0426875,0.01886395738
0.04270833333,0.01905101165
0.04272916667,0.01932656765
0.04275,0.01959893852
0.04277083333,0.01974884979
0.04279166667,0.01985465176
0.0428125,0.02002493478
0.04283333333,0.02015736699
0.04285416667,0.02025296353
0.042875,0.02032727748
0.04289583333,0.02034787089
0.04291666667,0.02042571642
0.0429375,0.02042030543
0.04295833333,0.02049364522
0.04297916667,0.02064287476
0.043,0.02074738592
0.04302083333,0.02091163211
0.04304166667,0.020970935
0.0430625,0.02111775614
0.04308333333,0.02117743343
0.04310416667,0.02124097012
0.043125,0.02123416215
0.04314583333,0.02129162475
0.04316666667,0.02134646662
0.0431875,0.0214002952
0.04320833333,0.02141557075
0.04322916667,0.0214829389
0.04325,0.02150666527
0.04327083333,0.02152582444
0.04329166667,0.02150730789
0.0433125,0.02155347168
0.04333333333,0.02159457281
0.04335416667,0.02158910222
0.043375,0.02162047289
0.04339583333,0.02174365334
0.04341666667,0.02172282897
0.0434375,0.02178408019
0.04345833333,0.0216983594
0.04347916667,0.02174272388
0.0435,0.02176158875
0.04352083333,0.02178059891
0.04354166667,0.02172647417
0.0435625,0.02177439258
0.04358333333,0.02185187861
0.04360416667,0.0219040513
0.043625,0.02201163396
0.04364583333,0.02230016887
0.04366666667,0.02226435579
0.0436875,0.02232635207
0.04370833333,0.02252321318
0.04372916667,0.02268389054
0.04375,0.0227951128
0.04377083333,0.02284135856
0.04379166667,0.02311220579
0.0438125,0.02326599322
0.04383333333,0.02350155823
0.04385416667,0.02370964549
0.043875,0.02391946688
0.04389583333,0.02404860966
0.04391666667,0.0243121814
0.0439375,0.02447555214
0.04395833333,0.02459705994
0.04397916667,0.02465913631
0.044,0.02474192344
0.04402083333,0.02474794909
0.04404166667,0.02483397163
0.0440625,0.02487991378
0.04408333333,0.02494586073
0.04410416667,0.02493553422
0.044125,0.02498525381
0.04414583333,0.02494948171
0.04416666667,0.02489800006
0.0441875,0.02479898557
0.04420833333,0.02487342432
0.04422916667,0.02468719147
0.04425,0.02467403933
0.04427083333,0.02462100238
0.04429166667,0.02456328459
0.0443125,0.0244971253
0.04433333333,0.0243858099
0.04435416667,0.02426201105
0.044375,0.02422814816
0.04439583333,0.02425427735
0.04441666667,0.02415614761
0.0444375,0.02409399115
0.04445833333,0.02399409935
0.04447916667,0.0239838697
0.0445,0.02388563938
0.04452083333,0.02381017432
0.04454166667,0.02373721078
0.0445625,0.02376426011
0.04458333333,0.02368915454
0.04460416667,0.0235592816
0.044625,0.02340441011
0.04464583333,0.02334146015
0.04466666667,0.02315841615
0.0446875,0.02313522063
0.04470833333,0.02300368808
0.04472916667,0.02302011289
0.04475,0.02296520025
0.04477083333,0.02300350741
0.04479166667,0.02297680825
0.0448125,0.02301462181
0.04483333333,0.02301264741
0.04485416667,0.02313226461
0.044875,0.02316835709
0.04489583333,0.02328492515
0.04491666667,0.02325828187
0.0449375,0.02339508012
0.04495833333,0.02334648371
0.04497916667,0.02346500754
0.045,0.02341265231
0.04502083333,0.02349003963
0.04504166667,0.02346725948
0.0450625,0.02359022759
0.04508333333,0.02365133166
0.04510416667,0.02374090254
0.045125,0.02382944711
0.04514583333,0.02401696518
0.04516666667,0.02410783432
0.0451875,0.02419086546
0.04520833333,0.02433647029
0.04522916667,0.02439116128
0.04525,0.02449180931
0.04527083333,0.02451649494
0.04529166667,0.02444166131
0.0453125,0.02452375181
0.04533333333,0.02442185581
0.04535416667,0.02432675473
0.045375,0.02435147204
0.04539583333,0.02437976189
0.04541666667,0.02449151501
0.0454375,0.02438038029
0.04545833333,0.02448300086
0.04547916667,0.02442850918
0.0455,0.02445455082
0.04552083333,0.02437175252
0.04554166667,0.02424757183
0.0455625,0.02405266277
0.04558333333,0.02396879904
0.04560416667,0.02391918004
0.045625,0.02383407764
0.04564583333,0.02377738245
0.04566666667,0.0238007661
0.0456875,0.02360603958
0.04570833333,0.02371404693
0.04572916667,0.02353324741
0.04575,0.02351485193
0.04577083333,0.02350752056
0.04579166667,0.02351337858
0.0458125,0.02348935418
0.04583333333,0.02349291742
0.04585416667,0.02342531085
0.045875,0.02345049568
0.04589583333,0.02340173721
0.04591666667,0.02342933044
0.0459375,0.02345335484
0.04595833333,0.02345229127
0.04597916667,0.02350765467
0.046,0.02357947081
0.04602083333,0.02368063852
0.04604166667,0.02370767854
0.0460625,0.02375462651
0.04608333333,0.02364846133
0.04610416667,0.02360211685
0.046125,0.02344868891
0.04614583333,0.02338176593
0.04616666667,0.02318955772
0.0461875,0.02316372469
0.04620833333,0.02297947556
0.04622916667,0.02289061621
0.04625,0.0226869788
0.04627083333,0.02252498828
0.04629166667,0.02241937257
0.0463125,0.02233552933
0.04633333333,0.02217145264
0.04635416667,0.02219803445
0.046375,0.02204434574
0.04639583333,0.02196796983
0.04641666667,0.02170921303
0.0464375,0.02171435766
0.04645833333,0.02147349343
0.04647916667,0.02145227417
0.0465,0.021229228
0.04652083333,0.02123264596
0.04654166667,0.02100563422
0.0465625,0.02080515213
0.04658333333,0.0207090769
0.04660416667,0.02049872652
0.046625,0.02024899423
0.04664583333,0.02005982585
0.04666666667,0.01983986795
0.0466875,0.0196890533
0.04670833333,0.01952427067
0.04672916667,0.01942468807
0.04675,0.01918907464
0.04677083333,0.01914198883
0.04679166667,0.01899942569
0.0468125,0.01882496104
0.04683333333,0.01868291385
0.04685416667,0.01847019792
0.046875,0.0182214044
0.04689583333,0.01794054918
0.04691666667,0.01770318113
0.0469375,0.01742762513
0.04695833333,0.0173080992
0.04697916667,0.0170987267
0.047,0.016943831
0.04702083333,0.01673016697
0.04704166667,0.01657355018
0.0470625,0.01638198644
0.04708333333,0.0162383616
0.04710416667,0.01600477844
0.047125,0.01592643745
0.04714583333,0.01578998193
0.04716666667,0.01575825363
0.0471875,0.01558591612
0.04720833333,0.01546842046
0.04722916667,0.0152393356
0.04725,0.01514242403
0.04727083333,0.01497677155
0.04729166667,0.01485177688
0.0473125,0.01463340782
0.04733333333,0.01443275623
0.04735416667,0.01420456264
0.047375,0.01404367946
0.04739583333,0.01386846509
0.04741666667,0.01373064239
0.0474375,0.01358626317
0.04745833333,0.01352779288
0.04747916667,0.01336575206
0.0475,0.01334745437
0.04752083333,0.01308834367
0.04754166667,0.01302993577
0.0475625,0.01296095457
0.04758333333,0.01286258362
0.04760416667,0.01288205385
0.047625,0.01286254171
0.04764583333,0.01271981932
0.04766666667,0.01264436822
0.0476875,0.01253718976
0.04770833333,0.01245442778
0.04772916667,0.01234248094
0.04775,0.0122532621
0.04777083333,0.01215863042
0.04779166667,0.01209970657
0.0478125,0.0120251514
0.04783333333,0.01192512736
0.04785416667,0.01189230103
0.047875,0.01183912065
0.04789583333,0.01193602942
0.04791666667,0.01188419666
0.0479375,0.01196284778
0.04795833333,0.01198472083
0.04797916667,0.01199341007
0.048,0.01198255643
0.04802083333,0.01200451236
0.04804166667,0.0118798241
0.0480625,0.01182946749
0.04808333333,0.01170761511
0.04810416667,0.01165368967
0.048125,0.01154051349
0.04814583333,0.01146914531
0.04816666667,0.01129849628
0.0481875,0.01122024097
0.04820833333,0.01102493703
0.04822916667,0.01097589266
0.04825,0.01082101557
0.04827083333,0.0108430488
0.04829166667,0.01076730061
0.0483125,0.01066992525
0.04833333333,0.01071048062
0.04835416667,0.01072166674
0.048375,0.01061962452
0.04839583333,0.01067460235
0.04841666667,0.01056106109
0.0484375,0.01050482318
0.04845833333,0.01037558354
0.04847916667,0.0102956919
0.0485,0.01020047721
0.04852083333,0.01005116943
0.04854166667,0.01003552414
0.0485625,0.00987618044
0.04858333333,0.009760539979
0.04860416667,0.009557880461
0.048625,0.00940489769
0.04864583333,0.009335309267
0.04866666667,0.009079532698
0.0486875,0.009113980457
0.04870833333,0.008934676647
0.04872916667,0.00851421617
0.04875,0.008644632064
0.04877083333,0.008309602737
0.04879166667,0.008222084492
0.0488125,0.008150500245
0.04883333333,0.008101194166
0.04885416667,0.008112582378
0.048875,0.007980133407
0.04889583333,0.007837698795
0.04891666667,0.007785799913
0.0489375,0.007546100765
0.04895833333,0.007455452345
0.04897916667,0.007331764791
0.049,0.007158780005
0.04902083333,0.006934993435
0.04904166667,0.006892071106
0.0490625,0.006750032771
0.04908333333,0.006710304413
0.04910416667,0.006545182783
0.049125,0.00650109956
0.04914583333,0.006247689947
0.04916666667,0.006147716194
0.0491875,0.005860453937
0.04920833333,0.00571060041
0.04922916667,0.005541156512
0.04925,0.005443442147
0.04927083333,0.005290454719
0.04929166667,0.005183147732
0.0493125,0.005021118559
0.04933333333,0.004914465826
0.04935416667,0.004643480759
0.049375,0.004388224799
0.04939583333,0.004237393849
0.04941666667,0.004110971931
0.0494375,0.003954164684
0.04945833333,0.003843636718
0.04947916667,0.003785871901
0.0495,0.00371154095
0.04952083333,0.00365033024
0.04954166667,0.003590295091
0.0495625,0.003489539493
0.04958333333,0.003334106179
0.04960416667,0.003119606292
0.049625,0.003323114244
0.04964583333,0.003167439951
0.04966666667,0.00306626386
0.0496875,0.003220533486
0.04970833333,0.003085272852
0.04972916667,0.00335387676
0.04975,0.003153949976
0.04977083333,0.003308962565
0.04979166667,0.002960910089
0.0498125,0.002849085722
0.04983333333,0.00260254927
0.04985416667,0.00250127539
0.049875,0.002318041166
0.04989583333,0.002245563781
0.04991666667,0.002138197888
0.0499375,0.00210871012
0.04995833333,0.001845955499
0.04997916667,0.001734698075
0.05,0.001564764068
0.05002083333,0.001567950589
0.05004166667,0.001516481861
0.0500625,0.001478227437
0.05008333333,0.001313156215
0.05010416667,0.001258405275
0.050125,0.001246825559
0.05014583333,0.001358677284
0.05016666667,0.001511104871
0.0501875,0.001494714525
0.05020833333,0.001543161459
0.05022916667,0.0016248381
0.05025,0.001705076545
0.05027083333,0.001741106855
0.05029166667,0.001779005164
0.0503125,0.001830592519
0.05033333333,0.00186182512
0.05035416667,0.001852358808
0.050375,0.001932117622
0.05039583333,0.002057146281
0.05041666667,0.002186281839
0.0504375,0.00222566817
0.05045833333,0.002425723011
0.05047916667,0.002318166662
0.0505,0.002485695994
0.05052083333,0.002498437651
0.05054166667,0.002476971131
0.0505625,0.002588735195
0.05058333333,0.002787216101
0.05060416667,0.002885888331
0.050625,0.002870810917
0.05064583333,0.002882774919
0.05066666667,0.0030878291
0.0506875,0.003195795696
0.05070833333,0.003459884552
0.05072916667,0.003267401597
0.05075,0.003082385752
0.05077083333,0.002973311814
0.05079166667,0.002872073092
0.0508125,0.002706862288
0.05083333333,0.002624614397
0.05085416667,0.002492792439
0.050875,0.002327001886
0.05089583333,0.002128465334
0.05091666667,0.001861151308
0.0509375,0.001772871707
0.05095833333,0.001654400839
0.05097916667,0.001550355577
0.051,0.001305530779
0.05102083333,0.001053584507
0.05104166667,0.0006996465381
0.0510625,0.000421857083
0.05108333333,0.0001499477366
0.05110416667,7.623282727e-06
0.051125,-0.0002643835905
0.05114583333,-0.0004765070044
0.05116666667,-0.0007312383968
0.0511875,-0.000998487114
0.05120833333,-0.001282403129
0.05122916667,-0.001558357966
0.05125,-0.001862709527
0.05127083333,-0.002031595446
0.05129166667,-0.002356212353
0.0513125,-0.002602414228
0.05133333333,-0.00295884558
0.05135416667,-0.003265918931
0.051375,-0.003533090232
0.05139583333,-0.00374994101
0.05141666667,-0.00392953679
0.0514375,-0.004218447953
0.05145833333,-0.00438002497
0.05147916667,-0.004635504913
0.0515,-0.004811502062
0.05152083333,-0.005023704376
0.05154166667,-0.005176499486
0.0515625,-0.005432399455
0.05158333333,-0.005588667467
0.05160416667,-0.005738578737
0.051625,-0.005916422699
0.05164583333,-0.006097344216
0.05166666667,-0.006213638466
0.0516875,-0.006320936605
0.05170833333,-0.0063447305
0.05172916667,-0.0064335512
0.05175,-0.006541298237
0.05177083333,-0.006652474403
0.05179166667,-0.006682883948
0.0518125,-0.006786335725
0.05183333333,-0.006820456125
0.05185416667,-0.006943566725
0.051875,-0.006910176948
0.05189583333,-0.006953386124
0.05191666667,-0.006871474907
0.0519375,-0.006782866083
0.05195833333,-0.006788569503
0.05197916667,-0.006777268834
0.052,-0.006701328326
0.05202083333,-0.006668287795
0.05204166667,-0.006683162414
0.0520625,-0.006667265669
0.05208333333,-0.006675716955
0.05210416667,-0.006701777223
0.052125,-0.006677877158
0.05214583333,-0.00677134376
0.05216666667,-0.00670540845
0.0521875,-0.006776655093
0.05220833333,-0.006672055461
0.05222916667,-0.006674007978
0.05225,-0.006595417857
0.05227083333,-0.006589363329
0.05229166667,-0.006683075801
0.0523125,-0.006661074702
0.05233333333,-0.006709559355
0.05235416667,-0.006696447264
0.052375,-0.006679972634
0.05239583333,-0.006669779774
0.05241666667,-0.006742640864
0.0524375,-0.006736556534
0.05245833333,-0.006712137256
0.05247916667,-0.006667011883
0.0525,-0.006701342296
0.05252083333,-0.006702762563
0.05254166667,-0.006762729026
0.0525625,-0.006633800454
0.05258333333,-0.006551533937
0.05260416667,-0.006537041627
0.052625,-0.006601958536
0.05264583333,-0.006611202378
0.05266666667,-0.006684696302
0.0526875,-0.006638304796
0.05270833333,-0.006713550072
0.05272916667,-0.006702214945
0.05275,-0.006847959477
0.05277083333,-0.006916202139
0.05279166667,-0.007045038044
0.0528125,-0.007132018916
0.05283333333,-0.007119833026
0.05285416667,-0.007173487917
0.052875,-0.007294236217
0.05289583333,-0.007316565607
0.05291666667,-0.007355687674
0.0529375,-0.007359091658
0.05295833333,-0.007467621937
0.05297916667,-0.007536183577
0.053,-0.007644671481
0.05302083333,-0.007770708762
0.05304166667,-0.007844029926
0.0530625,-0.00790028926
0.05308333333,-0.00788227655
0.05310416667,-0.007931461558
0.053125,-0.007967505604
0.05314583333,-0.008003864437
0.05316666667,-0.00798492413
0.0531875,-0.007998869754
0.05320833333,-0.007960513234
0.05322916667,-0.007960903458
0.05325,-0.007942451164
0.05327083333,-0.00797263626
0.05329166667,-0.007955550216
0.0533125,-0.007989996113
0.05333333333,-0.008051156998
0.05335416667,-0.008084632456
0.053375,-0.008120474406
0.05339583333,-0.00820128154
0.05341666667,-0.008183520287
0.0534375,-0.008201296441
0.05345833333,-0.008182067424
0.05347916667,-0.008261787705
0.0535,-0.008311381564
0.05352083333,-0.008423994295
0.05354166667,-0.008393501863
0.0535625,-0.008408306167
0.05358333333,-0.008466348052
0.05360416667,-0.008545357734
0.053625,-0.008680008352
0.05364583333,-0.008908187039
0.05366666667,-0.009080306627
0.0536875,-0.009198627435
0.05370833333,-0.009367842227
0.05372916667,-0.009510082193
0.05375,-0.00961546693
0.05377083333,-0.009774522856
0.05379166667,-0.009906045161
0.0538125,-0.01013221964
0.05383333333,-0.01023230143
0.05385416667,-0.01031771488
0.053875,-0.01041944697
0.05389583333,-0.01058231294
0.05391666667,-0.01074476447
0.0539375,-0.01096536592
0.05395833333,-0.01118156314
0.05397916667,-0.01130614057
0.054,-0.01149675157
0.05402083333,-0.01157722156
0.05404166667,-0.01161222905
0.0540625,-0.01150865573
0.05408333333,-0.01155014895
0.05410416667,-0.01151268277
0.054125,-0.01150745898
0.05414583333,-0.0115085477
0.05416666667,-0.01154805347
0.0541875,-0.01157887094
0.05420833333,-0.01167750452
0.05422916667,-0.0117182089
0.05425,-0.01173799485
0.05427083333,-0.01164998394
0.05429166667,-0.01161594596
0.0543125,-0.01150052808
0.05433333333,-0.01138169412
0.05435416667,-0.01133297943
0.054375,-0.01129229739
0.05439583333,-0.01118552405
0.05441666667,-0.01116432622
0.0544375,-0.0110453479
0.05445833333,-0.01104020048
0.05447916667,-0.0110109048
0.0545,-0.0110538248
0.05452083333,-0.01098363288
0.05454166667,-0.01089351904
0.0545625,-0.01083231252
0.05458333333,-0.0107239848
0.05460416667,-0.01071741432
0.054625,-0.01073556021
0.05464583333,-0.01062821038
0.05466666667,-0.01060447842
0.0546875,-0.01052315347
0.05470833333,-0.01049298607
0.05472916667,-0.01044350863
0.05475,-0.01039953902
0.05477083333,-0.01043554861
0.05479166667,-0.01048010215
0.0548125,-0.01046538539
0.05483333333,-0.01043032389
0.05485416667,-0.0104458956
0.054875,-0.0103896521
0.05489583333,-0.01043118816
0.05491666667,-0.01047366392
0.0549375,-0.01042320952
0.05495833333,-0.01046869159
0.05497916667,-0.01055055857
0.055,-0.01047817245
0.05502083333,-0.01067428477
0.05504166667,-0.01060298271
0.0550625,-0.01069034822
0.05508333333,-0.01079091337
0.05510416667,-0.01093424764
0.055125,-0.01104517933
0.05514583333,-0.0111836344
0.05516666667,-0.01131017879
0.0551875,-0.01143752784
0.05520833333,-0.01147199702
0.05522916667,-0.01152448729
0.05525,-0.01147404965
0.05527083333,-0.01146756019
0.05529166667,-0.01141166035
0.0553125,-0.0114383027
0.05533333333,-0.01138172206
0.05535416667,-0.01132635865
0.055375,-0.01126468368
0.05539583333,-0.0112077212
0.05541666667,-0.01119919308
0.0554375,-0.01115640812
0.05545833333,-0.01107316092
0.05547916667,-0.01095064729
0.0555,-0.01081980672
0.05552083333,-0.01073975023
0.05554166667,-0.01073260792
0.0555625,-0.0106057832
0.05558333333,-0.01059674844
0.05560416667,-0.01053959224
0.055625,-0.01048533898
0.05564583333,-0.01042487845
0.05566666667,-0.01036854275
0.0556875,-0.01029387955
0.05570833333,-0.01026224159
0.05572916667,-0.01022012159
0.05575,-0.01031844597
0.05577083333,-0.0102536967
0.05579166667,-0.01022811607
0.0558125,-0.01018312573
0.05583333333,-0.01014627237
0.05585416667,-0.0101466421
0.055875,-0.01015723404
0.05589583333,-0.01016047783
0.05591666667,-0.01020372659
0.0559375,-0.0102196224
0.05595833333,-0.01025428623
0.05597916667,-0.01016716659
0.056,-0.01021072641
0.05602083333,-0.01015206426
0.05604166667,-0.01011698693
0.0560625,-0.01007166225
0.05608333333,-0.01010493282
0.05610416667,-0.01002732478
0.056125,-0.01007242873
0.05614583333,-0.01008819602
0.05616666667,-0.01012974139
0.0561875,-0.0100898752
0.05620833333,-0.01002459601
0.05622916667,-0.009982474148
0.05625,-0.009940186515
0.05627083333,-0.009908200242
0.05629166667,-0.009767660871
0.0563125,-0.009906389751
0.05633333333,-0.009983257391
0.05635416667,-0.009864689782
0.056375,-0.009841121733
0.05639583333,-0.009765415452
0.05641666667,-0.009653604589
0.0564375,-0.009692590684
0.05645833333,-0.009402113967
0.05647916667,-0.009390237741
0.0565,-0.009175467305
0.05652083333,-0.009092611261
0.05654166667,-0.008970729075
0.0565625,-0.008843708783
0.05658333333,-0.0087982025
0.05660416667,-0.00874720607
0.056625,-0.008655899204
0.05664583333,-0.0085203005
0.05666666667,-0.008338053711
0.0566875,-0.008220149204
0.05670833333,-0.00807080511
0.05672916667,-0.007868384011
0.05675,-0.007623218
0.05677083333,-0.007422375958
0.05679166667,-0.007189181633
0.0568125,-0.007007863373
0.05683333333,-0.006808700971
0.05685416667,-0.006668156944
0.056875,-0.00645515928
0.05689583333,-0.006371825002
0.05691666667,-0.006225563586
0.0569375,-0.006176603492
0.05695833333,-0.006077269092
0.05697916667,-0.005928430241
0.057,-0.005779844709
0.05702083333,-0.005579009652
0.05704166667,-0.005521109793
0.0570625,-0.005380717106
0.05708333333,-0.005309141241
0.05710416667,-0.005194999278
0.057125,-0.005066438112
0.05714583333,-0.004899046384
0.05716666667,-0.004791175015
0.0571875,-0.004561862443
0.05720833333,-0.004362717737
0.05722916667,-0.004153175279
0.05725,-0.004047415219
0.05727083333,-0.003837530734
0.05729166667,-0.003716019914
0.0573125,-0.003509320319
0.05733333333,-0.00347434869
0.05735416667,-0.003290068591
0.057375,-0.003280272707
0.05739583333,-0.003137339372
0.05741666667,-0.003076600377
0.0574375,-0.002976024058
0.05745833333,-0.002864631126
0.05747916667,-0.002625406953
0.0575,-0.002510331338
0.05752083333,-0.002300572582
0.05754166667,-0.002193750115
0.0575625,-0.00202055811
0.05758333333,-0.001967721852
0.05760416667,-0.001776247984
0.057625,-0.001671494101
0.05764583333,-0.001530658919
0.05766666667,-0.001426722156
0.0576875,-0.001279924531
0.05770833333,-0.001252396731
0.05772916667,-0.001215310767
0.05775,-0.001174430363
0.05777083333,-0.001128555625
0.05779166667,-0.001137415646
0.0578125,-0.00108732807
0.05783333333,-0.001167309936
0.05785416667,-0.001154972473
0.057875,-0.001164185116
0.05789583333,-0.001142865163
0.05791666667,-0.001148316776
0.0579375,-0.00116460165
0.05795833333,-0.001168824267
0.05797916667,-0.001140416251
0.058,-0.001110921381
0.05802083333,-0.001036476344
0.05804166667,-0.0009146686643
0.0580625,-0.0008030972676
0.05808333333,-0.0006988639943
0.05810416667,-0.0005726341042
0.058125,-0.0004438724136
0.05814583333,-0.0003629078856
0.05816666667,-0.0001874575391
0.0581875,-0.0001199439866
0.05820833333,7.181125693e-05
0.05822916667,0.0002060300903
0.05825,0.0004898993066
0.05827083333,0.0006171002751
0.05829166667,0.0007928360719
0.0583125,0.0009004074382
0.05833333333,0.00116101047
0.05835416667,0.0012757316
0.058375,0.001478901366
0.05839583333,0.001576658804
0.05841666667,0.001783054206
0.0584375,0.001873965492
0.05845833333,0.002067753347
0.05847916667,0.002103007631
0.0585,0.002373806899
0.05852083333,0.002492185682
0.05854166667,0.002682254184
0.0585625,0.002642689738
0.05858333333,0.002999128308
0.05860416667,0.003118932713
0.058625,0.003510175273
0.05864583333,0.003469761461
0.05866666667,0.003714251332
0.0586875,0.00391634414
0.05870833333,0.004056417383
0.05872916667,0.004289692733
0.05875,0.004343971144
0.05877083333,0.004497476388
0.05879166667,0.004600912333
0.0588125,0.004758721683
0.05883333333,0.004862213042
0.05885416667,0.004971446004
0.058875,0.004998625722
0.05889583333,0.005058807787
0.05891666667,0.005172751378
0.0589375,0.005376619752
0.05895833333,0.005507296883
0.05897916667,0.005762718618
0.059,0.00588883413
0.05902083333,0.006080241874
0.05904166667,0.006125694606
0.0590625,0.006328549236
0.05908333333,0.00635672966
0.05910416667,0.006566431373
0.059125,0.006529758219
0.05914583333,0.006681880914
0.05916666667,0.006648560055
0.0591875,0.006851807702
0.05920833333,0.006900967099
0.05922916667,0.007129417732
0.05925,0.007093050517
0.05927083333,0.007264908403
0.05929166667,0.007219788153
0.0593125,0.007361413445
0.05933333333,0.007440993562
0.05935416667,0.00762360869
0.059375,0.007717994042
0.05939583333,0.007846693508
0.05941666667,0.007870788686
0.0594375,0.007927700877
0.05945833333,0.007979836315
0.05947916667,0.008018687367
0.0595,0.008202352561
0.05952083333,0.008443601429
0.05954166667,0.008400958963
0.0595625,0.008379085921
0.05958333333,0.008554937318
0.05960416667,0.009031608701
0.059625,0.009056110866
0.05964583333,0.009366008453
0.05966666667,0.009414164349
0.0596875,0.009413801134
0.05970833333,0.009730312042
0.05972916667,0.009873569012
0.05975,0.009996651672
0.05977083333,0.01006109361
0.05979166667,0.01017288025
0.0598125,0.01016761921
0.05983333333,0.01019702666
0.05985416667,0.01014466211
0.059875,0.0102365464
0.05989583333,0.01022002567
0.05991666667,0.01033400651
0.0599375,0.01030332316
0.05995833333,0.01036566403
0.05997916667,0.01030541491
0.06,0.01032671891
0.06002083333,0.01011056732
0.06004166667,0.01012375858
0.0600625,0.00995454099
0.06008333333,0.009956434369
0.06010416667,0.00975216087
0.060125,0.009800222702
0.06014583333,0.009694628417
0.06016666667,0.009796352126
0.0601875,0.009672805667
0.06020833333,0.009713334031
0.06022916667,0.009639430791
0.06025,0.009649468586
0.06027083333,0.00966661144
0.06029166667,0.009718164802
0.0603125,0.009665760212
0.06033333333,0.009701390751
0.06035416667,0.009706642479
0.060375,0.009728122503
0.06039583333,0.009813328274
0.06041666667,0.009870466776
0.0604375,0.009970721789
0.06045833333,0.01008441299
0.06047916667,0.01014470868
0.0605,0.01028742082
0.06052083333,0.01022842526
0.06054166667,0.01018804964
0.0605625,0.01015095692
0.06058333333,0.0102254888
0.06060416667,0.01034111064
0.060625,0.01027105842
0.06064583333,0.01038094517
0.06066666667,0.01043636259
0.0606875,0.01062515844
0.06070833333,0.01068333816
0.06072916667,0.01091361977
0.06075,0.01087555382
0.06077083333,0.01102116704
0.06079166667,0.01105961576
0.0608125,0.01119103096
0.06083333333,0.01123056468
0.06085416667,0.01141381264
0.060875,0.01151591539
0.06089583333,0.01172359195
0.06091666667,0.01186097134
0.0609375,0.01205560565
0.06095833333,0.01215153746
0.06097916667,0.0124075301
0.061,0.0125708105
0.06102083333,0.01290363166
0.06104166667,0.01309073903
0.0610625,0.0133786751
0.06108333333,0.01361174788
0.06110416667,0.01385286544
0.061125,0.01404581871
0.06114583333,0.01426787674
0.06116666667,0.01444541942
0.0611875,0.01461397763
0.06120833333,0.0147937499
0.06122916667,0.01496421825
0.06125,0.01512969844
0.06127083333,0.01536007784
0.06129166667,0.01554838009
0.0613125,0.01577581652
0.06133333333,0.01601084881
0.06135416667,0.0161815919
0.061375,0.0164877288
0.06139583333,0.01675869152
0.06141666667,0.01711014099
0.0614375,0.01731522195
0.06145833333,0.01757634245
0.06147916667,0.01773359254
0.0615,0.01791586168
0.06152083333,0.01799206994
0.06154166667,0.01814062893
0.0615625,0.01823753491
0.06158333333,0.01843233034
0.06160416667,0.01851588301
0.061625,0.0186257083
0.06164583333,0.01862326264
0.06166666667,0.01866502874
0.0616875,0.01862058975
0.06170833333,0.01860413514
0.06172916667,0.01858876087
0.06175,0.01859962754
0.06177083333,0.01863259263
0.06179166667,0.01869142987
0.0618125,0.01866852678
0.06183333333,0.01861827821
0.06185416667,0.01851296984
0.061875,0.01847057231
0.06189583333,0.01838386059
0.06191666667,0.01827901043
0.0619375,0.01818849519
0.06195833333,0.01808978803
0.06197916667,0.01802485809
0.062,0.01798286103
0.06202083333,0.01798774675
0.06204166667,0.01794796437
0.0620625,0.01793115772
0.06208333333,0.01784892939
0.06210416667,0.01782530546
0.062125,0.01772602089
0.06214583333,0.01765552722
0.06216666667,0.01758203655
0.0621875,0.017599402
0.06220833333,0.01759197935
0.06222916667,0.01764171943
0.06225,0.01764783077
0.06227083333,0.01771620102
0.06229166667,0.01769451611
0.0623125,0.01777489483
0.06233333333,0.01783483475
0.06235416667,0.01791009307
0.062375,0.01792393066
0.06239583333,0.01806109399
0.06241666667,0.0181422513
0.0624375,0.01821679436
0.06245833333,0.01826549135
0.06247916667,0.01833700575
0.0625,0.01843105629
0.06252083333,0.01845440269
0.06254166667,0.01847564429
0.0625625,0.01853504404
0.06258333333,0.01856545731
0.06260416667,0.01858785376
0.062625,0.01871485449
0.06264583333,0.01873961091
0.06266666667,0.01884802058
0.0626875,0.018868763
0.06270833333,0.01888684183
0.06272916667,0.01887657493
0.06275,0.01893812232
0.06277083333,0.01892724261
0.06279166667,0.01900622621
0.0628125,0.01900234632
0.06283333333,0.01906851865
0.06285416667,0.01910930686
0.062875,0.01921416074
0.06289583333,0.0192562826
0.06291666667,0.01929603703
0.0629375,0.01925286651
0.06295833333,0.01940305158
0.06297916667,0.01942912675
0.063,0.01948197186
0.06302083333,0.01950844377
0.06304166667,0.01952859759
0.0630625,0.01954825222
0.06308333333,0.01957683265
0.06310416667,0.01958205923
0.063125,0.01964432187
0.06314583333,0.01970258728
0.06316666667,0.01968948729
0.0631875,0.01973279566
0.06320833333,0.01965815015
0.06322916667,0.01967706159
0.06325,0.01971028745
0.06327083333,0.01977243833
0.06329166667,0.01982506737
0.0633125,0.01985687204
0.06333333333,0.01989608258
0.06335416667,0.01986505836
0.063375,0.01990916766
0.06339583333,0.01995134726
0.06341666667,0.01996766962
0.0634375,0.02005267516
0.06345833333,0.02007398568
0.06347916667,0.02022338659
0.0635,0.0201972425
0.06352083333,0.02025880292
0.06354166667,0.02024310268
0.0635625,0.02033939026
0.06358333333,0.02039478719
0.06360416667,0.02058331668
0.063625,0.02066260576
0.06364583333,0.0208528135
0.06366666667,0.0209788736
0.0636875,0.02114473656
0.06370833333,0.02127731591
0.06372916667,0.02147155255
0.06375,0.02160027064
0.06377083333,0.02168370597
0.06379166667,0.02181443013
0.0638125,0.0219367668
0.06383333333,0.02210913599
0.06385416667,0.02217740566
0.063875,0.02235869505
0.06389583333,0.0224515032
0.06391666667,0.02262131684
0.0639375,0.0227552224
0.06395833333,0.0228403639
0.06397916667,0.02296549454
0.064,0.02303095162
0.06402083333,0.02310136519
0.06404166667,0.02315828018
0.0640625,0.02311180532
0.06408333333,0.02310444601
0.06410416667,0.02307181247
0.064125,0.0230367016
0.06414583333,0.02294982597
0.06416666667,0.02292716689
0.0641875,0.0227804333
0.06420833333,0.02272538282
0.06422916667,0.02264084294
0.06425,0.0226212088
0.06427083333,0.02251811512
0.06429166667,0.02249023877
0.0643125,0.02234805934
0.06433333333,0.02224727906
0.06435416667,0.02205799706
0.064375,0.02197800018
0.06439583333,0.02184276655
0.06441666667,0.02175012045
0.0644375,0.02161010168
0.06445833333,0.02149384655
0.06447916667,0.02140953206
0.0645,0.02127762139
0.06452083333,0.02114545181
0.06454166667,0.02100025862
0.0645625,0.02093991078
0.06458333333,0.02088784613
0.06460416667,0.02077752352
0.064625,0.02078034729
0.06464583333,0.02071141452
0.06466666667,0.02065164596
0.0646875,0.0205992572
0.06470833333,0.02050613239
0.06472916667,0.02056600526
0.06475,0.02061418071
0.06477083333,0.02061559819
0.06479166667,0.02062840201
0.0648125,0.0206831079
0.06483333333,0.02071029693
0.06485416667,0.02083926648
0.064875,0.02086983435
0.06489583333,0.02094816789
0.06491666667,0.02100494504
0.0649375,0.02115334198
0.06495833333,0.02115284093
0.06497916667,0.02132012323
0.065,0.02137264796
0.06502083333,0.02157706954
0.06504166667,0.02163352259
0.0650625,0.02184949815
0.06508333333,0.0218891073
0.06510416667,0.02206573077
0.065125,0.02215591632
0.06514583333,0.02228904516
0.06516666667,0.02236354351
0.0651875,0.02243666351
0.06520833333,0.0225081332
0.06522916667,0.02260567434
0.06525,0.0226075761
0.06527083333,0.02267111838
0.06529166667,0.02268448286
0.0653125,0.02276263013
0.06533333333,0.02274346352
0.06535416667,0.02284079976
0.065375,0.02278376743
0.06539583333,0.02281315252
0.06541666667,0.02270700783
0.0654375,0.02269345708
0.06545833333,0.02264236286
0.06547916667,0.02259960957
0.0655,0.02265556902
0.06552083333,0.02252030186
0.06554166667,0.02252554148
0.0655625,0.02245449089
0.06558333333,0.02236759476
0.06560416667,0.02220818959
0.065625,0.02217114158
0.06564583333,0.02207673341
0.06566666667,0.0220899079
0.0656875,0.0220522508
0.06570833333,0.02198493667
0.06572916667,0.02186648361
0.06575,0.02172634564
0.06577083333,0.0215462707
0.06579166667,0.0214233119
0.0658125,0.02112044208
0.06583333333,0.02095593512
0.06585416667,0.02075553872
0.065875,0.02066852897
0.06589583333,0.02054024301
0.06591666667,0.02048081905
0.0659375,0.02034505643
0.06595833333,0.02028319612
0.06597916667,0.02005426213
0.066,0.01997831836
0.06602083333,0.01979622617
0.06604166667,0.01976064406
0.0660625,0.01967381313
0.06608333333,0.01961035468
0.06610416667,0.01951432414
0.066125,0.01950123347
0.06614583333,0.01948645711
0.06616666667,0.01946546324
0.0661875,0.0194517225
0.06620833333,0.0193913877
0.06622916667,0.01934175007
0.06625,0.01923532784
0.06627083333,0.01918727346
0.06629166667,0.01906052418
0.0663125,0.01890025102
0.06633333333,0.01877127774
0.06635416667,0.01862610877
0.066375,0.01844057627
0.06639583333,0.01821366325
0.06641666667,0.01800215431
0.0664375,0.01785192639
0.06645833333,0.01760709286
0.06647916667,0.01746554673
0.0665,0.01726751216
0.06652083333,0.01715908013
0.06654166667,0.01698581688
0.0665625,0.01688040607
0.06658333333,0.01684533805
0.06660416667,0.01673838682
0.066625,0.01661114208
0.06664583333,0.01651862077
0.06666666667,0.01647853665
0.0666875,0.01638976857
0.06670833333,0.0162813738
0.06672916667,0.01621301286
0.06675,0.01605967991
0.06677083333,0.0159249492
0.06679166667,0.01573408209
0.0668125,0.01565733738
0.06683333333,0.01543404814
0.06685416667,0.0152936345
0.066875,0.01503303926
0.06689583333,0.0148780914
0.06691666667,0.01464699209
0.0669375,0.01441841945
0.06695833333,0.01407482103
0.06697916667,0.01381802466
0.067,0.01352695003
0.06702083333,0.01337853633
0.06704166667,0.01318126265
0.0670625,0.01306800917
0.06708333333,0.01290279441
0.06710416667,0.01275634393
0.067125,0.01255172398
0.06714583333,0.01239928138
0.06716666667,0.01220888924
0.0671875,0.01196783129
0.06720833333,0.01178921107
0.06722916667,0.01152989548
0.06725,0.01134177856
0.06727083333,0.01112787891
0.06729166667,0.01094921585
0.0673125,0.01073839795
0.06733333333,0.01057535969
0.06735416667,0.01034712605
0.067375,0.01012427825
0.06739583333,0.009897948243
0.06741666667,0.009767302312
0.0674375,0.009509047493
0.06745833333,0.009392654523
0.06747916667,0.009103501216
0.0675,0.008954980411
0.06752083333,0.008731173351
0.06754166667,0.008694248274
0.0675625,0.00849867519
0.06758333333,0.008382964879
0.06760416667,0.008251868188
0.067625,0.008181972429
0.06764583333,0.008082585409
0.06766666667,0.007944137789
0.0676875,0.007915523835
0.06770833333,0.007905917242
0.06772916667,0.007865239866
0.06775,0.007858209312
0.06777083333,0.007755489089
0.06779166667,0.007813842036
0.0678125,0.007841595449
0.06783333333,0.007898850366
0.06785416667,0.007882654667
0.067875,0.007905670442
0.06789583333,0.007886400446
0.06791666667,0.00790440198
0.0679375,0.007934777066
0.06795833333,0.008004990406
0.06797916667,0.008002144285
0.068,0.008021839894
0.06802083333,0.00799824018
0.06804166667,0.008018745109
0.0680625,0.007921297103
0.06808333333,0.007873324677
0.06810416667,0.007825862616
0.068125,0.007705845404
0.06814583333,0.007545745
0.06816666667,0.007328596432
0.0681875,0.007143317722
0.06820833333,0.006976003759
0.06822916667,0.006817239802
0.06825,0.006574437022
0.06827083333,0.006461167708
0.06829166667,0.006273962557
0.0683125,0.00619264273
0.06833333333,0.006069931202
0.06835416667,0.005899168551
0.068375,0.005744338501
0.06839583333,0.00561901601
0.06841666667,0.005438691936
0.0684375,0.00535125006
0.06845833333,0.005114209838
0.06847916667,0.00506709097
0.0685,0.004892639816
0.06852083333,0.004779249895
0.06854166667,0.004551350139
0.0685625,0.004526631907
0.06858333333,0.004362793639
0.06860416667,0.004352347925
0.068625,0.004032653756
0.06864583333,0.004027384333
0.06866666667,0.00390674267
0.0686875,0.003885205835
0.06870833333,0.003625849728
0.06872916667,0.003445589682
0.06875,0.003314566566
0.06877083333,0.003254737472
0.06879166667,0.003089935053
0.0688125,0.002955417149
0.06883333333,0.002697678749
0.06885416667,0.002503352473
0.068875,0.00227290066
0.06889583333,0.002090695547
0.06891666667,0.00191261922
0.0689375,0.001756647136
0.06895833333,0.001594231348
0.06897916667,0.001477913931
0.069,0.001384509262
0.06902083333,0.001296388218
0.06904166667,0.001173672033
0.0690625,0.001018716488
0.06908333333,0.0008355309837
0.06910416667,0.0006751223118
0.069125,0.0005138774868
0.06914583333,0.0003622676013
0.06916666667,0.0002883595298
0.0691875,9.001124999e-05
0.06920833333,3.557198215e-05
0.06922916667,-0.0001494936296
0.06925,-0.0002250894613
0.06927083333,-0.0004448103718
0.06929166667,-0.0004741699377
0.0693125,-0.0006332105841
0.06933333333,-0.0006862620357
0.06935416667,-0.0008418206708
0.069375,-0.000915476412
0.06939583333,-0.001025743666
0.06941666667,-0.001047353609
0.0694375,-0.001177633647
0.06945833333,-0.001200606814
0.06947916667,-0.00133441668
0.0695,-0.001322220545
0.06952083333,-0.001373514067
0.06954166667,-0.001328594517
0.0695625,-0.001261345576
0.06958333333,-0.001299209893
0.06960416667,-0.001244792715
0.069625,-0.001171197975
0.06964583333,-0.0011851124
0.06966666667,-0.001114436309
0.0696875,-0.001163475798
0.06970833333,-0.001052908367
0.06972916667,-0.0009684421821
0.06975,-0.001026725397
0.06977083333,-0.0009849314811
0.06979166667,-0.001031229156
0.0698125,-0.001011598855
0.06983333333,-0.001170594245
0.06985416667,-0.001222992549
0.069875,-0.001241343096
0.06989583333,-0.001212031115
0.06991666667,-0.001198740676
0.0699375,-0.001265488216
0.06995833333,-0.00128369825
0.06997916667,-0.001343571465
0.07,-0.001333253924
0.07002083333,-0.001438969281
0.07004166667,-0.001432030927
0.0700625,-0.001522793667
0.07008333333,-0.001600716263
0.07010416667,-0.001612713444
0.070125,-0.001688503311
0.07014583333,-0.00162829156
0.07016666667,-0.001714925864
0.0701875,-0.001780410297
0.07020833333,-0.001914707362
0.07022916667,-0.001975030638
0.07025,-0.002064208267
0.07027083333,-0.00206517172
0.07029166667,-0.002124739112
0.0703125,-0.002097524703
0.07033333333,-0.002157517476
0.07035416667,-0.002159954049
0.070375,-0.002286031377
0.07039583333,-0.002329084091
0.07041666667,-0.002484478522
0.0704375,-0.002562938491
0.07045833333,-0.002698121592
0.07047916667,-0.002695305739
0.0705,-0.002752632136
0.07052083333,-0.002804213436
0.07054166667,-0.002895129612
0.0705625,-0.002848053351
0.07058333333,-0.003018186428
0.07060416667,-0.002843396505
0.070625,-0.002855544211
0.07064583333,-0.002655249555
0.07066666667,-0.002725411905
0.0706875,-0.002707755426
0.07070833333,-0.002775326604
0.07072916667,-0.002746812301
0.07075,-0.002732464112
0.07077083333,-0.002738288138
0.07079166667,-0.002853840357
0.0708125,-0.003023450496
0.07083333333,-0.003156241961
0.07085416667,-0.003371934406
0.070875,-0.003551455447
0.07089583333,-0.003800067119
0.07091666667,-0.003971263301
0.0709375,-0.004292265978
0.07095833333,-0.004494566936
0.07097916667,-0.004852593411
0.071,-0.005122475326
0.07102083333,-0.00547974091
0.07104166667,-0.005715437699
0.0710625,-0.005960844923
0.07108333333,-0.006094208453
0.07110416667,-0.006323371083
0.071125,-0.00645294087
0.07114583333,-0.006656170823
0.07116666667,-0.006712938659
0.0711875,-0.006833161693
0.07120833333,-0.006888007745
0.07122916667,-0.006983304862
0.07125,-0.007060663775
0.07127083333,-0.007220797241
0.07129166667,-0.007383257616
0.0713125,-0.007511726581
0.07133333333,-0.007653592154
0.07135416667,-0.007851256058
0.071375,-0.008045998402
0.07139583333,-0.008235231973
0.07141666667,-0.008473300375
0.0714375,-0.008683920838
0.07145833333,-0.00891716592
0.07147916667,-0.009074114263
0.0715,-0.009251992218
0.07152083333,-0.009394036606
0.07154166667,-0.009600277059
0.0715625,-0.009783306159
0.07158333333,-0.009961497039
0.07160416667,-0.01009052061
0.071625,-0.0102764871
0.07164583333,-0.01036525611
0.07166666667,-0.01048819814
0.0716875,-0.01061724219
0.07170833333,-0.01070583332
0.07172916667,-0.01080950443
0.07175,-0.01083466411
0.07177083333,-0.01077628415
0.07179166667,-0.01080756634
0.0718125,-0.01081432588
0.07183333333,-0.01083620265
0.07185416667,-0.01084961649
0.071875,-0.01085593738
0.07189583333,-0.01084049884
0.07191666667,-0.01084157731
0.0719375,-0.01078004576
0.07195833333,-0.01074932981
0.07197916667,-0.01067780424
0.072,-0.01070691366
0.07202083333,-0.01069038454
0.07204166667,-0.01069002133
0.0720625,-0.01064794883
0.07208333333,-0.01066057011
0.07210416667,-0.01062777918
0.072125,-0.01067249198
0.07214583333,-0.01069316547
0.07216666667,-0.0107701635
0.0721875,-0.01078390796
0.07220833333,-0.01078899112
0.07222916667,-0.01075601019
0.07225,-0.01078779902
0.07227083333,-0.01079239696
0.07229166667,-0.01078810729
0.0723125,-0.01072246395
0.07233333333,-0.01078738272
0.07235416667,-0.01080283802
0.072375,-0.01087799855
0.07239583333,-0.01096726768
0.07241666667,-0.01103428751
0.0724375,-0.011115917
0.07245833333,-0.01110116951
0.07247916667,-0.01113428734
0.0725,-0.01119758468
0.07252083333,-0.01125870366
0.07254166667,-0.01127409097
0.0725625,-0.01132016443
0.07258333333,-0.01138708834
0.07260416667,-0.01150640938
0.072625,-0.01155745052
0.07264583333,-0.01173300017
0.07266666667,-0.01180251781
0.0726875,-0.011833678
0.07270833333,-0.01190930698
0.07272916667,-0.01192218438
0.07275,-0.01203489304
0.07277083333,-0.01214525104
0.07279166667,-0.01232410967
0.0728125,-0.01251519285
0.07283333333,-0.01257566269
0.07285416667,-0.01275642682
0.072875,-0.01276586298
0.07289583333,-0.01296276227
0.07291666667,-0.0130749885
0.0729375,-0.01325819083
0.07295833333,-0.013437327
0.07297916667,-0.0136038214
0.073,-0.01377558522
0.07302083333,-0.013892252
0.07304166667,-0.0140277287
0.0730625,-0.0141716525
0.07308333333,-0.01426236797
0.07310416667,-0.01438206993
0.073125,-0.01439517643
0.07314583333,-0.01449898258
0.07316666667,-0.01455672365
0.0731875,-0.01462515444
0.07320833333,-0.01470389031
0.07322916667,-0.01468458865
0.07325,-0.01471423637
0.07327083333,-0.01471501868
0.07329166667,-0.01467129216
0.0733125,-0.01465056278
0.07333333333,-0.01455376204
0.07335416667,-0.01453447994
0.073375,-0.01441644039
0.07339583333,-0.01434440166
0.07341666667,-0.0142707862
0.0734375,-0.01415887754
0.07345833333,-0.01414929796
0.07347916667,-0.01406994741
0.0735,-0.01403775811
0.07352083333,-0.01400049031
0.07354166667,-0.01397584192
0.0735625,-0.01391072199
0.07358333333,-0.0139136659
0.07360416667,-0.01393872499
0.073625,-0.01401232928
0.07364583333,-0.0140421344
0.07366666667,-0.01417599339
0.0736875,-0.0143146757
0.07370833333,-0.01450479683
0.07372916667,-0.01462577097
0.07375,-0.01484075002
0.07377083333,-0.01501220278
0.07379166667,-0.0153141655
0.0738125,-0.01547043771
0.07383333333,-0.01579731517
0.07385416667,-0.01603266224
0.073875,-0.0162281394
0.07389583333,-0.01638581418
0.07391666667,-0.01653836109
0.0739375,-0.01668598317
0.07395833333,-0.01680276357
0.07397916667,-0.0168573074
0.074,-0.0169217512
0.07402083333,-0.01692997664
0.07404166667,-0.01698908396
0.0740625,-0.01696449332
0.07408333333,-0.0170695968
0.07410416667,-0.01706071198
0.074125,-0.01709700562
0.07414583333,-0.01710165851
0.07416666667,-0.01707495749
0.0741875,-0.01710055396
0.07420833333,-0.0170562584
0.07422916667,-0.01705373265
0.07425,-0.01703094877
0.07427083333,-0.01698368229
0.07429166667,-0.01698032394
0.0743125,-0.01694153063
0.07433333333,-0.01688243262
0.07435416667,-0.01685116813
0.074375,-0.0167821981
0.07439583333,-0.0167585779
0.07441666667,-0.01670488715
0.0744375,-0.0166461505
0.07445833333,-0.0165201202
0.07447916667,-0.01645871624
0.0745,-0.01625025831
0.07452083333,-0.01616450027
0.07454166667,-0.01597454399
0.0745625,-0.0159328375
0.07458333333,-0.01581843197
0.07460416667,-0.01577907056
0.074625,-0.01573580876
0.07464583333,-0.0156503357
0.07466666667,-0.01561270934
0.0746875,-0.01561178081
0.07470833333,-0.01557656284
0.07472916667,-0.01559667755
0.07475,-0.01556218509
0.07477083333,-0.01560751628
0.07479166667,-0.01552511659
0.0748125,-0.0154875936
0.07483333333,-0.01541480049
0.07485416667,-0.01546650846
0.074875,-0.01540840883
0.07489583333,-0.01541852672
0.07491666667,-0.01537789218
0.0749375,-0.01539744344
0.07495833333,-0.01545880083
0.07497916667,-0.01555426419
0.075,-0.01557112951
0.07502083333,-0.0156443119
0.07504166667,-0.01572542638
0.0750625,-0.01580265351
0.07508333333,-0.01588547044
0.07510416667,-0.01597392932
0.075125,-0.01609638333
0.07514583333,-0.01612954773
0.07516666667,-0.0162090268
0.0751875,-0.01626675762
0.07520833333,-0.01637677476
0.07522916667,-0.01638834737
0.07525,-0.01651856303
0.07527083333,-0.01649756916
0.07529166667,-0.0166580677
0.0753125,-0.0166203659
0.07533333333,-0.01676439866
0.07535416667,-0.01670990139
0.075375,-0.01681480929
0.07539583333,-0.01679117046
0.07541666667,-0.01685263216
0.0754375,-0.01683951728
0.07545833333,-0.01689684577
0.07547916667,-0.01683232002
0.0755,-0.01683776267
0.07552083333,-0.01668832265
0.07554166667,-0.01674493775
0.0755625,-0.01666222885
0.07558333333,-0.01668651402
0.07560416667,-0.01657005399
0.075625,-0.01655241475
0.07564583333,-0.01646268554
0.07566666667,-0.01640708558
0.0756875,-0.01619915105
0.07570833333,-0.01606963575
0.07572916667,-0.01597891189
0.07575,-0.01593346335
0.07577083333,-0.01575287618
0.07579166667,-0.0156644173
0.0758125,-0.01559798606
0.07583333333,-0.01551929489
0.07585416667,-0.01541704871
0.075875,-0.0153793944
0.07589583333,-0.01530110836
0.07591666667,-0.01528065372
0.0759375,-0.01523758657
0.07595833333,-0.01519620791
0.07597916667,-0.01517897286
0.076,-0.01507720258
0.07602083333,-0.01508114021
0.07604166667,-0.01493401267
0.0760625,-0.01497409213
0.07608333333,-0.01482633036
0.07610416667,-0.01485932991
0.076125,-0.01473732106
0.07614583333,-0.01473144628
0.07616666667,-0.01459893398
0.0761875,-0.01458199229
0.07620833333,-0.01443440281
0.07622916667,-0.01443471573
0.07625,-0.01432897523
0.07627083333,-0.01437227242
0.07629166667,-0.01426662039
0.0763125,-0.01424860489
0.07633333333,-0.01410879008
0.07635416667,-0.01408908144
0.076375,-0.01394813135
0.07639583333,-0.01396082621
0.07641666667,-0.01381458621
0.0764375,-0.01385414414
0.07645833333,-0.01375050284
0.07647916667,-0.0136497952
0.0765,-0.0135835018
0.07652083333,-0.01339996047
0.07654166667,-0.01329442952
0.0765625,-0.01323096175
0.07658333333,-0.01309530623
0.07660416667,-0.01305864565
0.076625,-0.01291047968
0.07664583333,-0.01289310679
0.07666666667,-0.01275517605
0.0766875,-0.01263957471
0.07670833333,-0.0125434706
0.07672916667,-0.01239632629
0.07675,-0.01234325115
0.07677083333,-0.01222664304
0.07679166667,-0.0121019464
0.0768125,-0.0119224349
0.07683333333,-0.011764789
0.07685416667,-0.01154827233
0.076875,-0.01140634902
0.07689583333,-0.0111839259
0.07691666667,-0.01108715311
0.0769375,-0.01084065624
0.07695833333,-0.01072883792
0.07697916667,-0.01052008849
0.077,-0.01039359719
0.07702083333,-0.01011184603
0.07704166667,-0.009960935451
0.0770625,-0.009726532735
0.07708333333,-0.009548602626
0.07710416667,-0.009310537018
0.077125,-0.009150239639
0.07714583333,-0.008972224779
0.07716666667,-0.008855382912
0.0771875,-0.00874477718
0.07720833333,-0.00866092369
0.07722916667,-0.008530204184
0.07725,-0.008431692608
0.07727083333,-0.008256268688
0.07729166667,-0.008135806769
0.0773125,-0.008013939485
0.07733333333,-0.007844930515
0.07735416667,-0.00774669461
0.077375,-0.007548789494
0.07739583333,-0.007463765331
0.07741666667,-0.007308993023
0.0774375,-0.007222780492
0.07745833333,-0.007145804353
0.07747916667,-0.007111967541
0.0775,-0.007030005567
0.07752083333,-0.006991755217
0.07754166667,-0.006869888864
0.0775625,-0.006804304663
0.07758333333,-0.006719497964
0.07760416667,-0.006638638675
0.077625,-0.006502646487
0.07764583333,-0.006440195255
0.07766666667,-0.006310777273
0.0776875,-0.006257204805
0.07770833333,-0.006151661277
0.07772916667,-0.006108460948
0.07775,-0.006070979405
0.07777083333,-0.005976566114
0.07779166667,-0.00592579646
0.0778125,-0.005799734034
0.07783333333,-0.005742704496
0.07785416667,-0.005686192773
0.077875,-0.005580464378
0.07789583333,-0.005552764516
0.07791666667,-0.005479905289
0.0779375,-0.005477865692
0.07795833333,-0.005377193913
0.07797916667,-0.005364210345
0.078,-0.005295418203
0.07802083333,-0.005228014197
0.07804166667,-0.005192946643
0.0780625,-0.005080006085
0.07808333333,-0.005019784905
0.07810416667,-0.004906368442
0.078125,-0.004887478426
0.07814583333,-0.004759850912
0.07816666667,-0.004665359855
0.0781875,-0.004483371042
0.07820833333,-0.004427727312
0.07822916667,-0.004303043243
0.07825,-0.004247136414
0.07827083333,-0.004105397034
0.07829166667,-0.004076357931
0.0783125,-0.003878910094
0.07833333333,-0.003761216765
0.07835416667,-0.003496062942
0.078375,-0.003346283454
0.07839583333,-0.003077270929
0.07841666667,-0.002983108861
0.0784375,-0.002787703183
0.07845833333,-0.002645168919
0.07847916667,-0.002384249354
0.0785,-0.002203231445
0.07852083333,-0.001931984443
0.07854166667,-0.001785984612
0.0785625,-0.001563431229
0.07858333333,-0.001474718563
0.07860416667,-0.001216473291
0.078625,-0.001044819364
0.07864583333,-0.0008184864419
0.07866666667,-0.0006650687428
0.0786875,-0.0004613248166
0.07870833333,-0.000332181924
0.07872916667,-0.0002619292354
0.07875,1.372012775e-05
0.07877083333,0.000123896054
0.07879166667,0.0003744936548
0.0788125,0.0004200785188
0.07883333333,0.0005459090462
0.07885416667,0.0006336958613
0.078875,0.0007112437161
0.07889583333,0.000812909333
0.07891666667,0.000921730767
0.0789375,0.000938090845
0.07895833333,0.001105790958
0.07897916667,0.001153110759
0.079,0.001364943222
0.07902083333,0.001383516472
0.07904166667,0.001577600138
0.0790625,0.001554390183
0.07908333333,0.001721049077
0.07910416667,0.001734283986
0.079125,0.001891842112
0.07914583333,0.00193935493
0.07916666667,0.002102893544
0.0791875,0.00216305349
0.07920833333,0.002288304269
0.07922916667,0.002408245113
0.07925,0.002564620925
0.07927083333,0.002693609335
0.07929166667,0.002803153824
0.0793125,0.002865387127
0.07933333333,0.002982659964
0.07935416667,0.003015475115
0.079375,0.003137279535
0.07939583333,0.003204873996
0.07941666667,0.00325141917
0.0794375,0.0032906204
0.07945833333,0.003298383439
0.07947916667,0.003401972121
0.0795,0.003433757462
0.07952083333,0.003528179368
0.07954166667,0.003515056334
0.0795625,0.003669487778
0.07958333333,0.003631463973
0.07960416667,0.003794878256
0.079625,0.003660490736
0.07964583333,0.003723753151
0.07966666667,0.00373222935
0.0796875,0.003855218645
0.07970833333,0.00375822233
0.07972916667,0.003934814595
0.07975,0.003928122111
0.07977083333,0.004031609744
0.07979166667,0.004085415974
0.0798125,0.004192878027
0.07983333333,0.004232417326
0.07985416667,0.004313363228
0.079875,0.004350480624
0.07989583333,0.004432128742
0.07991666667,0.004446369596
0.0799375,0.004516907502
0.07995833333,0.004542490467
0.07997916667,0.004653692711
0.08,0.004668574315
0.08002083333,0.004775980022
0.08004166667,0.004755569156
0.0800625,0.004824551288
0.08008333333,0.004822106101
0.08010416667,0.004856097046
0.080125,0.004816973582
0.08014583333,0.004810190294
0.08016666667,0.004768849816
0.0801875,0.004790523089
0.08020833333,0.004764032084
0.08022916667,0.004785766359
0.08025,0.004796754569
0.08027083333,0.004798528273
0.08029166667,0.004856829531
0.0803125,0.004876181949
0.08033333333,0.004923623521
0.08035416667,0.004906263202
0.080375,0.004968544934
0.08039583333,0.004948115908
0.08041666667,0.005021420307
0.0804375,0.005035289563
0.08045833333,0.005123246461
0.08047916667,0.005167100113
0.0805,0.005214692093
0.08052083333,0.005252207164
0.08054166667,0.005468188785
0.0805625,0.005508116912
0.08058333333,0.005886503961
0.08060416667,0.006026638672
0.080625,0.006520173978
0.08064583333,0.006630436983
0.08066666667,0.00709185563
0.0806875,0.00730267074
0.08070833333,0.007591048256
0.08072916667,0.007711156271
0.08075,0.008021211252
0.08077083333,0.008160619065
0.08079166667,0.008414112963
0.0808125,0.008595596999
0.08083333333,0.008859858848
0.08085416667,0.009053172544
0.080875,0.009275089949
0.08089583333,0.009431308135
0.08091666667,0.009587396868
0.0809375,0.009741220623
0.08095833333,0.009848325513
0.08097916667,0.01002275757
0.081,0.01010571513
0.08102083333,0.01030966546
0.08104166667,0.01035277732
0.0810625,0.01051086094
0.08108333333,0.01054327469
0.08110416667,0.01068973634
0.081125,0.01077954937
0.08114583333,0.01096032746
0.08116666667,0.01109422371
0.0811875,0.01131512597
0.08120833333,0.01144118514
0.08122916667,0.01157739665
0.08125,0.01168037206
0.08127083333,0.01177846733
0.08129166667,0.01183591411
0.0813125,0.01197950449
0.08133333333,0.01211560331
0.08135416667,0.01231487188
0.081375,0.01247987896
0.08139583333,0.01267980412
0.08141666667,0.01284532528
0.0814375,0.01301228907
0.08145833333,0.01315841172
0.08147916667,0.01334684063
0.0815,0.01350173354
0.08152083333,0.01369728614
0.08154166667,0.01381589659
0.0815625,0.0139912609
0.08158333333,0.01410624664
0.08160416667,0.01416662801
0.081625,0.01423768234
0.08164583333,0.01419827994
0.08166666667,0.01431434881
0.0816875,0.01424767915
0.08170833333,0.0143303657
0.08172916667,0.01429607254
0.08175,0.01435069926
0.08177083333,0.01429132652
0.08179166667,0.0142716961
0.0818125,0.01419657655
0.08183333333,0.014185776
0.08185416667,0.01409759279
0.081875,0.01403820701
0.08189583333,0.01393069979
0.08191666667,0.01386330836
0.0819375,0.01374358963
0.08195833333,0.0136742387
0.08197916667,0.01358000003
0.082,0.0135809388
0.08202083333,0.01350005157
0.08204166667,0.01344941929
0.0820625,0.01335075125
0.08208333333,0.01330213249
0.08210416667,0.01322223712
0.082125,0.01322910283
0.08214583333,0.01321445126
0.08216666667,0.01321637537
0.0821875,0.01316659711
0.08220833333,0.01311458182
0.08222916667,0.01312148664
0.08225,0.0130908573
0.08227083333,0.01311931759
0.08229166667,0.01315372437
0.0823125,0.01316531468
0.08233333333,0.01324037276
0.08235416667,0.01323503442
0.082375,0.01327705383
0.08239583333,0.01329441648
0.08241666667,0.01331654005
0.0824375,0.01336773671
0.08245833333,0.01335632149
0.08247916667,0.01341723558
0.0825,0.01338893455
0.08252083333,0.0134477159
0.08254166667,0.01342899632
0.0825625,0.01348652504
0.08258333333,0.01348343212
0.08260416667,0.01356047019
0.082625,0.01357227657
0.08264583333,0.01363274828
0.08266666667,0.01365862601
0.0826875,0.01372459065
0.08270833333,0.01373738237
0.08272916667,0.0137664089
0.08275,0.01374647953
0.08277083333,0.01378899347
0.08279166667,0.01376005262
0.0828125,0.01378535572
0.08283333333,0.01379031315
0.08285416667,0.01381739601
0.082875,0.01380378846
0.08289583333,0.01379368547
0.08291666667,0.01376167405
0.0829375,0.01376380119
0.08295833333,0.01376235299
0.08297916667,0.01382028684
0.083,0.01392022707
0.08302083333,0.01394517068
0.08304166667,0.01405670214
0.0830625,0.01406264678
0.08308333333,0.01418635994
0.08310416667,0.01430733223
0.083125,0.01441309787
0.08314583333,0.01452163421
0.08316666667,0.01459356584
0.0831875,0.0146673834
0.08320833333,0.01474358328
0.08322916667,0.01473737881
0.08325,0.01480032504
0.08327083333,0.01480936632
0.08329166667,0.01493379567
0.0833125,0.01492790319
0.08333333333,0.01501819864
0.08335416667,0.0149818249
0.083375,0.01503748633
0.08339583333,0.01505210157
0.08341666667,0.01508833654
0.0834375,0.01509470399
0.08345833333,0.01512292027
0.08347916667,0.01514354534
0.0835,0.01521494798
0.08352083333,0.01528448239
0.08354166667,0.01535950974
0.0835625,0.01549234707
0.08358333333,0.01561356243
0.08360416667,0.01580602862
0.083625,0.01592909545
0.08364583333,0.01610938087
0.08366666667,0.01627992466
0.0836875,0.01645107754
0.08370833333,0.0166793298
0.08372916667,0.01688333414
0.08375,0.01712549292
0.08377083333,0.01735687815
0.08379166667,0.01757000014
0.0838125,0.01782162301
0.08383333333,0.0180052314
0.08385416667,0.01825309917
0.083875,0.0184082184
0.08389583333,0.0185935311
0.08391666667,0.01873626374
0.0839375,0.0188706778
0.08395833333,0.01898323931
0.08397916667,0.0191185195
0.084,0.01916876435
0.08402083333,0.0192922838
0.08404166667,0.01932071708
0.0840625,0.01938284375
0.08408333333,0.01934932172
0.08410416667,0.01938606054
0.084125,0.01931522973
0.08414583333,0.01932202652
0.08416666667,0.01924164593
0.0841875,0.01921902224
0.08420833333,0.01907261275
0.08422916667,0.01899919659
0.08425,0.01889579743
0.08427083333,0.01883183233
0.08429166667,0.01873920485
0.0843125,0.01864668727
0.08433333333,0.01851776801
0.08435416667,0.0184123069
0.084375,0.01831670664
0.08439583333,0.01820559427
0.08441666667,0.01813228242
0.0844375,0.01802003942
0.08445833333,0.01795802452
0.08447916667,0.0178935118
0.0845,0.01785627939
0.08452083333,0.01776205376
0.08454166667,0.01772076637
0.0845625,0.01759970933
0.08458333333,0.0175354369
0.08460416667,0.0173728168
0.084625,0.01729956083
0.08464583333,0.01715185307
0.08466666667,0.0170880761
0.0846875,0.01696983725
0.08470833333,0.01691285893
0.08472916667,0.01684275642
0.08475,0.01680903323
0.08477083333,0.01676065288
0.08479166667,0.01671374217
0.0848125,0.01660443842
0.08483333333,0.01652338356
0.08485416667,0.01639234461
0.084875,0.01637284085
0.08489583333,0.01632260159
0.08491666667,0.01630559936
0.0849375,0.01632851921
0.08495833333,0.01632652432
0.08497916667,0.01640226692
0.085,0.01642290503
0.08502083333,0.01647336222
0.08504166667,0.01651399769
0.0850625,0.01654292271
0.08508333333,0.01663010567
0.08510416667,0.01664657332
0.085125,0.01672406308
0.08514583333,0.01676418632
0.08516666667,0.0168266166
0.0851875,0.01692940481
0.08520833333,0.01695510186
0.08522916667,0.01708232984
0.08525,0.01711096615
0.08527083333,0.0172255151
0.08529166667,0.01722300239
0.0853125,0.01725650951
0.08533333333,0.01723363809
0.08535416667,0.01718857884
0.085375,0.01708108932
0.08539583333,0.01703089662
0.08541666667,0.01688179001
0.0854375,0.0168502368
0.08545833333,0.01666856371
0.08547916667,0.0166141931
0.0855,0.01637613401
0.08552083333,0.01632277854
0.08554166667,0.01607466862
0.0855625,0.01599477977
0.08558333333,0.01574426703
0.08560416667,0.0156082008
0.085625,0.01539624296
0.08564583333,0.01525016408
0.08566666667,0.0150960153
0.0856875,0.01493557263
0.08570833333,0.01480108872
0.08572916667,0.01467940211
0.08575,0.01458331849
0.08577083333,0.01449990552
0.08579166667,0.0144163603
0.0858125,0.01436486933
0.08583333333,0.01429736335
0.08585416667,0.0142811276
0.085875,0.01422030665
0.08589583333,0.01417332701
0.08591666667,0.01410947647
0.0859375,0.01406795345
0.08595833333,0.01405441575
0.08597916667,0.01398132741
0.086,0.01393755618
0.08602083333,0.01384728588
0.08604166667,0.0137891937
0.0860625,0.01369410194
0.08608333333,0.0136094559
0.08610416667,0.01351550594
0.086125,0.01343137305
0.08614583333,0.01331203245
0.08616666667,0.01325677615
0.0861875,0.01310703717
0.08620833333,0.01304706279
0.08622916667,0.01290330477
0.08625,0.0128289666
0.08627083333,0.01269779541
0.08629166667,0.01264144946
0.0863125,0.01251224801
0.08633333333,0.0124884909
0.08635416667,0.01235118974
0.086375,0.01236658078
0.08639583333,0.01220189314
0.08641666667,0.01219568029
0.0864375,0.01206018776
0.08645833333,0.01203744207
0.08647916667,0.01193427388
0.0865,0.01190357469
0.08652083333,0.01178090088
0.08654166667,0.0117903417
0.0865625,0.01168006845
0.08658333333,0.01164516248
0.08660416667,0.01154716685
0.086625,0.01148013398
0.08664583333,0.01139714383
0.08666666667,0.01126415469
0.0866875,0.0111158574
0.08670833333,0.01097074337
0.08672916667,0.01085481606
0.08675,0.01073691901
0.08677083333,0.01068802085
0.08679166667,0.0106114205
0.0868125,0.01051003486
0.08683333333,0.01036323793
0.08685416667,0.01021569129
0.086875,0.01005358715
0.08689583333,0.009923555888
0.08691666667,0.00972381793
0.0869375,0.009650660679
0.08695833333,0.009432824329
0.08697916667,0.009325863793
0.087,0.00911077857
0.08702083333,0.00894572679
0.08704166667,0.008729660884
0.0870625,0.008572784252
0.08708333333,0.008377967402
0.08710416667,0.008243611082
0.087125,0.008041548543
0.08714583333,0.007910904475
0.08716666667,0.007691329811
0.0871875,0.007551326882
0.08720833333,0.007326563355
0.08722916667,0.007238887716
0.08725,0.007043683901
0.08727083333,0.006926379167
0.08729166667,0.006717669778
0.0873125,0.006548262201
0.08733333333,0.006343801506
0.08735416667,0.006178684067
0.087375,0.006039716769
0.08739583333,0.005917787552
0.08741666667,0.005800048355
0.0874375,0.005677036941
0.08745833333,0.005598860327
0.08747916667,0.005502389278
0.0875,0.005453332793
0.08752083333,0.005350216292
0.08754166667,0.005290747155
0.0875625,0.005220715888
0.08758333333,0.005148966797
0.08760416667,0.005102059804
0.087625,0.00503810402
0.08764583333,0.005003443919
0.08766666667,0.004960833583
0.0876875,0.004888340831
0.08770833333,0.004868771881
0.08772916667,0.004777897615
0.08775,0.004795992281
0.08777083333,0.004709870555
0.08779166667,0.004726630636
0.0878125,0.004691429436
0.08783333333,0.004666455556
0.08785416667,0.004582814407
0.087875,0.004551547114
0.08789583333,0.004454007372
0.08791666667,0.004485182464
0.0879375,0.004402578808
0.08795833333,0.004415281583
0.08797916667,0.004383857362
0.088,0.004377618898
0.08802083333,0.004359887447
0.08804166667,0.004310837016
0.0880625,0.004265186377
0.08808333333,0.004198271781
0.08810416667,0.004144565668
0.088125,0.004092289135
0.08814583333,0.004012318328
0.08816666667,0.003969030455
0.0881875,0.003912658431
0.08820833333,0.003885012819
0.08822916667,0.003837995231
0.08825,0.003755360143
0.08827083333,0.003695745487
0.08829166667,0.003553506453
0.0883125,0.003513094038
0.08833333333,0.003353299573
0.08835416667,0.003266484942
0.088375,0.003114280058
0.08839583333,0.003003769089
0.08841666667,0.002869893331
0.0884375,0.002682766877
0.08845833333,0.002529546153
0.08847916667,0.002358249389
0.0885,0.002188600367
0.08852083333,0.002071329858
0.08854166667,0.001842162572
0.0885625,0.001821219455
0.08858333333,0.001533352304
0.08860416667,0.001563338679
0.088625,0.001268801745
0.08864583333,0.001182841836
0.08866666667,0.0009771217592
0.0886875,0.0008210503729
0.08870833333,0.0007371436805
0.08872916667,0.0005475514336
0.08875,0.0003795226221
0.08877083333,0.0002687037922
0.08879166667,7.94956577e-05
0.0888125,-2.510577906e-05
0.08883333333,-0.0002204049379
0.08885416667,-0.0003455182305
0.088875,-0.0005427800352
0.08889583333,-0.0006550113903
0.08891666667,-0.0008694606367
0.0889375,-0.001009766362
0.08895833333,-0.001192569267
0.08897916667,-0.001355860848
0.089,-0.001492382027
0.08902083333,-0.001695383806
0.08904166667,-0.001817798358
0.0890625,-0.001990988385
0.08908333333,-0.002119501587
0.08910416667,-0.002255547792
0.089125,-0.002374114003
0.08914583333,-0.0024522678
0.08916666667,-0.002534647007
0.0891875,-0.002679016674
0.08920833333,-0.002752531786
0.08922916667,-0.00294816331
0.08925,-0.002979520475
0.08927083333,-0.003159532789
0.08929166667,-0.003137373831
0.0893125,-0.003287817119
0.08933333333,-0.003236177843
0.08935416667,-0.003316530958
0.089375,-0.003285212908
0.08939583333,-0.003336071502
0.08941666667,-0.003317942843
0.0894375,-0.00336607499
0.08945833333,-0.003340926487
0.08947916667,-0.003389556892
0.0895,-0.003369151149
0.08952083333,-0.003427668475
0.08954166667,-0.003456392791
0.0895625,-0.003511267249
0.08958333333,-0.003568231827
0.08960416667,-0.003623611294
0.089625,-0.003668882186
0.08964583333,-0.003700443078
0.08966666667,-0.003728197888
0.0896875,-0.003706840798
0.08970833333,-0.00373950135
0.08972916667,-0.003705123905
0.08975,-0.003770017996
0.08977083333,-0.003759526182
0.08979166667,-0.003777030855
0.0898125,-0.003733133432
0.08983333333,-0.003749210387
0.08985416667,-0.003680245951
0.089875,-0.003688821103
0.08989583333,-0.003566357773
0.08991666667,-0.003624374047
0.0899375,-0.003437892068
0.08995833333,-0.003332421649
