time,data
0,1.787325843e-08
2.083333333e-05,1.937876526e-08
4.166666667e-05,2.086082773e-08
6.25e-05,2.232745011e-08
8.333333333e-05,2.380834196e-08
0.0001041666667,2.531434795e-08
0.000125,2.68603273e-08
0.0001458333333,2.842345204e-08
0.0001666666667,2.998512372e-08
0.0001875,3.153414596e-08
0.0002083333333,3.30659411e-08
0.0002291666667,3.461182629e-08
0.00025,3.616720079e-08
0.0002708333333,3.774597701e-08
0.0002916666667,3.930641412e-08
0.0003125,4.082869154e-08
0.0003333333333,4.228250106e-08
0.0003541666667,4.366489037e-08
0.000375,4.498782147e-08
0.0003958333333,4.624877548e-08
0.0004166666667,4.744482851e-08
0.0004375,4.853746205e-08
0.0004583333333,4.949726318e-08
0.0004791666667,5.029958317e-08
0.0005,5.093514233e-08
0.0005208333333,5.142734238e-08
0.0005416666667,5.176757156e-08
0.0005625,5.197664521e-08
0.0005833333333,5.200750053e-08
0.0006041666667,5.185741969e-08
0.000625,5.148423199e-08
0.0006458333333,5.089654564e-08
0.0006666666667,5.0101157e-08
0.0006875,4.910718232e-08
0.0007083333333,4.792859443e-08
0.0007291666667,4.653491459e-08
0.00075,4.490767935e-08
0.0007708333333,4.301332268e-08
0.0007916666667,4.083745253e-08
0.0008125,3.841000407e-08
0.0008333333333,3.573456908e-08
0.0008541666667,3.286649175e-08
0.000875,2.977048474e-08
0.0008958333333,2.645824715e-08
0.0009166666667,2.287429268e-08
0.0009375,1.903678282e-08
0.0009583333333,1.496274393e-08
0.0009791666667,1.071016786e-08
0.001,6.323350288e-09
0.001020833333,1.802211491e-09
0.001041666667,-2.877471816e-09
0.0010625,-7.76304443e-09
0.001083333333,-1.286398987e-08
0.001104166667,-1.813581463e-08
0.001125,-2.35282549e-08
0.001145833333,-2.895820117e-08
0.001166666667,-3.445940777e-08
0.0011875,-4.002480836e-08
0.001208333333,-4.574702217e-08
0.001229166667,-5.157857075e-08
0.00125,-5.749114962e-08
0.001270833333,-6.33637498e-08
0.001291666667,-6.913326445e-08
0.0013125,-7.479287945e-08
0.001333333333,-8.037765298e-08
0.001354166667,-8.594523848e-08
0.001375,-9.148243407e-08
0.001395833333,-9.691318326e-08
0.001416666667,-1.021565978e-07
0.0014375,-1.071199449e-07
0.001458333333,-1.118582631e-07
0.001479166667,-1.163794536e-07
0.0015,-1.207964857e-07
0.001520833333,-1.250404154e-07
0.001541666667,-1.290867857e-07
0.0015625,-1.327891255e-07
0.001583333333,-1.361150197e-07
0.001604166667,-1.390531281e-07
0.001625,-1.416578641e-07
0.001645833333,-1.439746882e-07
0.001666666667,-1.459761449e-07
0.0016875,-1.475890343e-07
0.001708333333,-1.487289154e-07
0.001729166667,-1.493194333e-07
0.00175,-1.494206714e-07
0.001770833333,-1.490322461e-07
0.001791666667,-1.482859204e-07
0.0018125,-1.471126438e-07
0.001833333333,-1.455422023e-07
0.001854166667,-1.434435291e-07
0.001875,-1.408227774e-07
0.001895833333,-1.376569116e-07
0.001916666667,-1.340204676e-07
0.0019375,-1.299626717e-07
0.001958333333,-1.255115052e-07
0.001979166667,-1.206234685e-07
0.002,-1.152385849e-07
0.002020833333,-1.092735147e-07
0.002041666667,-1.027536811e-07
0.0020625,-9.56924282e-08
0.002083333333,-8.824044073e-08
0.002104166667,-8.039135935e-08
0.002125,-7.223310661e-08
0.002145833333,-6.361731408e-08
0.002166666667,-5.457892627e-08
0.0021875,-4.50342803e-08
0.002208333333,-3.514147195e-08
0.002229166667,-2.498897089e-08
0.00225,-1.47030752e-08
0.002270833333,-4.289787636e-09
0.002291666667,6.342621983e-09
0.0023125,1.728063204e-08
0.002333333333,2.853920478e-08
0.002354166667,4.005231347e-08
0.002375,5.15999119e-08
0.002395833333,6.315632106e-08
0.002416666667,7.459950524e-08
0.0024375,8.616203218e-08
0.002458333333,9.781066268e-08
0.002479166667,1.096615776e-07
0.0025,1.214704213e-07
0.002520833333,1.330953694e-07
0.002541666667,1.443480784e-07
0.0025625,1.552358526e-07
0.002583333333,1.658739421e-07
0.002604166667,1.763594213e-07
0.002625,1.866852841e-07
0.002645833333,1.967182186e-07
0.002666666667,2.062099753e-07
0.0026875,2.151292051e-07
0.002708333333,2.233901313e-07
0.002729166667,2.31288368e-07
0.00275,2.387733957e-07
0.002770833333,2.460021733e-07
0.002791666667,2.526660978e-07
0.0028125,2.586857022e-07
0.002833333333,2.638656724e-07
0.002854166667,2.682679963e-07
0.002875,2.720068721e-07
0.002895833333,2.751546333e-07
0.002916666667,2.777011616e-07
0.0029375,2.7949946e-07
0.002958333333,2.803444943e-07
0.002979166667,2.802249242e-07
0.003,2.790609699e-07
0.003020833333,2.771518837e-07
0.003041666667,2.744232575e-07
0.0030625,2.711089166e-07
0.003083333333,2.669281116e-07
0.003104166667,2.619341046e-07
0.003125,2.55921293e-07
0.003145833333,2.490054953e-07
0.003166666667,2.412632796e-07
0.0031875,2.328131643e-07
0.003208333333,2.237245411e-07
0.003229166667,2.139091464e-07
0.00325,2.032409583e-07
0.003270833333,1.916538537e-07
0.003291666667,1.790464097e-07
0.0033125,1.65698637e-07
0.003333333333,1.515621335e-07
0.003354166667,1.370228517e-07
0.003375,1.218114392e-07
0.003395833333,1.060879313e-07
0.003416666667,8.954143027e-08
0.0034375,7.232779353e-08
0.003458333333,5.45426424e-08
0.003479166667,3.643365787e-08
0.0035,1.822381002e-08
0.003520833333,-1.300667352e-10
0.003541666667,-1.874228239e-08
0.0035625,-3.775835822e-08
0.003583333333,-5.729953756e-08
0.003604166667,-7.702020355e-08
0.003625,-9.68883711e-08
0.003645833333,-1.164057934e-07
0.003666666667,-1.358938988e-07
0.0036875,-1.552200217e-07
0.003708333333,-1.748242937e-07
0.003729166667,-1.94488905e-07
0.00375,-2.140839968e-07
0.003770833333,-2.332024138e-07
0.003791666667,-2.515861581e-07
0.0038125,-2.692870567e-07
0.003833333333,-2.864537691e-07
0.003854166667,-3.032809275e-07
0.003875,-3.198027514e-07
0.003895833333,-3.356175e-07
0.003916666667,-3.506300175e-07
0.0039375,-3.643453397e-07
0.003958333333,-3.772055095e-07
0.003979166667,-3.890876599e-07
0.004,-4.005376866e-07
0.004020833333,-4.112456224e-07
0.004041666667,-4.211458133e-07
0.0040625,-4.298068461e-07
0.004083333333,-4.370813542e-07
0.004104166667,-4.430555123e-07
0.004125,-4.478920062e-07
0.004145833333,-4.517641798e-07
0.004166666667,-4.546482728e-07
0.0041875,-4.56194897e-07
0.004208333333,-4.56329758e-07
0.004229166667,-4.546391779e-07
0.00425,-4.515812009e-07
0.004270833333,-4.469767987e-07
0.004291666667,-4.414446266e-07
0.0043125,-4.346319429e-07
0.004333333333,-4.267267855e-07
0.004354166667,-4.173161869e-07
0.004375,-4.064207815e-07
0.004395833333,-3.940915008e-07
0.004416666667,-3.804737503e-07
0.0044375,-3.658377068e-07
0.004458333333,-3.502002812e-07
0.004479166667,-3.334278347e-07
0.0045,-3.154640069e-07
0.004520833333,-2.958812217e-07
0.004541666667,-2.750896044e-07
0.0045625,-2.528046537e-07
0.004583333333,-2.298190935e-07
0.004604166667,-2.058288828e-07
0.004625,-1.812600772e-07
0.004645833333,-1.556545328e-07
0.004666666667,-1.290501075e-07
0.0046875,-1.014172142e-07
0.004708333333,-7.299589555e-08
0.004729166667,-4.424115829e-08
0.00475,-1.536496974e-08
0.004770833333,1.361578494e-08
0.004791666667,4.282884092e-08
0.0048125,7.275401259e-08
0.004833333333,1.030580989e-07
0.004854166667,1.33956263e-07
0.004875,1.644562673e-07
0.004895833333,1.948424426e-07
0.004916666667,2.245751034e-07
0.0049375,2.543743562e-07
0.004958333333,2.841920548e-07
0.004979166667,3.141542493e-07
0.005,3.438546514e-07
0.005020833333,3.726724458e-07
0.005041666667,4.003443905e-07
0.0050625,4.268194118e-07
0.005083333333,4.523530492e-07
0.005104166667,4.774154263e-07
0.005125,5.016234468e-07
0.005145833333,5.250902859e-07
0.005166666667,5.46727108e-07
0.0051875,5.669091934e-07
0.005208333333,5.851358651e-07
0.005229166667,6.02331454e-07
0.00525,6.183738606e-07
0.005270833333,6.33510183e-07
0.005291666667,6.472229757e-07
0.0053125,6.590548196e-07
0.005333333333,6.688113672e-07
0.005354166667,6.765040439e-07
0.005375,6.82469306e-07
0.005395833333,6.870064908e-07
0.005416666667,6.898210358e-07
0.0054375,6.909788226e-07
0.005458333333,6.895176057e-07
0.005479166667,6.859627319e-07
0.0055,6.796857974e-07
0.005520833333,6.717661449e-07
0.005541666667,6.618622592e-07
0.0055625,6.505151191e-07
0.005583333333,6.372895314e-07
0.005604166667,6.219982538e-07
0.005625,6.045846135e-07
0.005645833333,5.849897207e-07
0.005666666667,5.636201195e-07
0.0056875,5.407443382e-07
0.005708333333,5.163152537e-07
0.005729166667,4.905874675e-07
0.00575,4.627013652e-07
0.005770833333,4.331918433e-07
0.005791666667,4.012166244e-07
0.0058125,3.679060399e-07
0.005833333333,3.328887885e-07
0.005854166667,2.970797937e-07
0.005875,2.601086635e-07
0.005895833333,2.219674258e-07
0.005916666667,1.824523821e-07
0.0059375,1.414594237e-07
0.005958333333,9.953454594e-08
0.005979166667,5.712010065e-08
0.006,1.458878973e-08
0.006020833333,-2.774069685e-08
0.006041666667,-7.071085406e-08
0.0060625,-1.139227024e-07
0.006083333333,-1.58376352e-07
0.006104166667,-2.027041432e-07
0.006125,-2.472365566e-07
0.006145833333,-2.907331691e-07
0.006166666667,-3.337388819e-07
0.0061875,-3.763352652e-07
0.006208333333,-4.189664651e-07
0.006229166667,-4.617185709e-07
0.00625,-5.038757536e-07
0.006270833333,-5.447961371e-07
0.006291666667,-5.83945905e-07
0.0063125,-6.211092227e-07
0.006333333333,-6.57172734e-07
0.006354166667,-6.918463669e-07
0.006375,-7.260016446e-07
0.006395833333,-7.580998158e-07
0.006416666667,-7.884742672e-07
0.0064375,-8.157868479e-07
0.006458333333,-8.40983887e-07
0.006479166667,-8.640615761e-07
0.0065,-8.857513194e-07
0.006520833333,-9.05988145e-07
0.006541666667,-9.241045404e-07
0.0065625,-9.396447354e-07
0.006583333333,-9.520776416e-07
0.006604166667,-9.615114323e-07
0.006625,-9.686787052e-07
0.006645833333,-9.73308147e-07
0.006666666667,-9.762402442e-07
0.0066875,-9.758776969e-07
0.006708333333,-9.728915984e-07
0.006729166667,-9.658557474e-07
0.00675,-9.559487353e-07
0.006770833333,-9.429527381e-07
0.006791666667,-9.277058552e-07
0.0068125,-9.102271292e-07
0.006833333333,-8.901704405e-07
0.006854166667,-8.673826528e-07
0.006875,-8.414700119e-07
0.006895833333,-8.12609585e-07
0.006916666667,-7.81414542e-07
0.0069375,-7.478080875e-07
0.006958333333,-7.127905519e-07
0.006979166667,-6.75102342e-07
0.007,-6.356073641e-07
0.007020833333,-5.926788162e-07
0.007041666667,-5.475416742e-07
0.0070625,-4.996211942e-07
0.007083333333,-4.501723367e-07
0.007104166667,-3.993225164e-07
0.007125,-3.471062939e-07
0.007145833333,-2.934592658e-07
0.007166666667,-2.377674804e-07
0.0071875,-1.802875573e-07
0.007208333333,-1.215927341e-07
0.007229166667,-6.209604919e-08
0.00725,-3.164454698e-09
0.007270833333,5.627412847e-08
0.007291666667,1.153141369e-07
0.0073125,1.759415085e-07
0.007333333333,2.368655032e-07
0.007354166667,2.987109724e-07
0.007375,3.597722866e-07
0.007395833333,4.198703891e-07
0.007416666667,4.788964816e-07
0.0074375,5.372497185e-07
0.007458333333,5.95760639e-07
0.007479166667,6.541575885e-07
0.0075,7.117444625e-07
0.007520833333,7.676739529e-07
0.007541666667,8.205821587e-07
0.0075625,8.714858382e-07
0.007583333333,9.196776318e-07
0.007604166667,9.672673968e-07
0.007625,1.012678695e-06
0.007645833333,1.056592737e-06
0.007666666667,1.096918822e-06
0.0076875,1.133851811e-06
0.007708333333,1.167319169e-06
0.007729166667,1.198036443e-06
0.00775,1.226923587e-06
0.007770833333,1.253611913e-06
0.007791666667,1.277593469e-06
0.0078125,1.298027769e-06
0.007833333333,1.313926532e-06
0.007854166667,1.326391953e-06
0.007875,1.334743274e-06
0.007895833333,1.341034931e-06
0.007916666667,1.343512849e-06
0.0079375,1.343136319e-06
0.007958333333,1.337807021e-06
0.007979166667,1.328161147e-06
0.008,1.313911753e-06
0.008020833333,1.295892275e-06
0.008041666667,1.274885221e-06
0.0080625,1.250730634e-06
0.008083333333,1.223432605e-06
0.008104166667,1.192379045e-06
0.008125,1.157049269e-06
0.008145833333,1.118340265e-06
0.008166666667,1.075638124e-06
0.0081875,1.031103125e-06
0.008208333333,9.831692296e-07
0.008229166667,9.334573861e-07
0.00825,8.797694022e-07
0.008270833333,8.22989989e-07
0.008291666667,7.623301599e-07
0.0083125,6.986557537e-07
0.008333333333,6.328784252e-07
0.008354166667,5.651819492e-07
0.008375,4.960716637e-07
0.008395833333,4.248825576e-07
0.008416666667,3.511200362e-07
0.0084375,2.754423747e-07
0.008458333333,1.974577657e-07
0.008479166667,1.197809496e-07
0.0085,4.131702624e-08
0.008520833333,-3.590732334e-08
0.008541666667,-1.143454469e-07
0.0085625,-1.931492903e-07
0.008583333333,-2.735073963e-07
0.008604166667,-3.541466356e-07
0.008625,-4.340155897e-07
0.008645833333,-5.125637585e-07
0.008666666667,-5.893655839e-07
0.0086875,-6.655259881e-07
0.008708333333,-7.416471703e-07
0.008729166667,-8.173447554e-07
0.00875,-8.925102861e-07
0.008770833333,-9.6430756e-07
0.008791666667,-1.033653007e-06
0.0088125,-1.098480197e-06
0.008833333333,-1.161702812e-06
0.008854166667,-1.222221272e-06
0.008875,-1.281400387e-06
0.008895833333,-1.337441176e-06
0.008916666667,-1.389368663e-06
0.0089375,-1.4367115e-06
0.008958333333,-1.479340767e-06
0.008979166667,-1.518752583e-06
0.009,-1.555500717e-06
0.009020833333,-1.589367002e-06
0.009041666667,-1.620136118e-06
0.0090625,-1.64531923e-06
0.009083333333,-1.666093681e-06
0.009104166667,-1.680605692e-06
0.009125,-1.691893203e-06
0.009145833333,-1.698526034e-06
0.009166666667,-1.702061809e-06
0.0091875,-1.700522148e-06
0.009208333333,-1.693513013e-06
0.009229166667,-1.680578976e-06
0.00925,-1.661763235e-06
0.009270833333,-1.638466529e-06
0.009291666667,-1.611086986e-06
0.0093125,-1.579886884e-06
0.009333333333,-1.54490624e-06
0.009354166667,-1.504429747e-06
0.009375,-1.459779583e-06
0.009395833333,-1.409143579e-06
0.009416666667,-1.35559435e-06
0.0094375,-1.29761213e-06
0.009458333333,-1.237480433e-06
0.009479166667,-1.173391752e-06
0.0095,-1.105537535e-06
0.009520833333,-1.033117655e-06
0.009541666667,-9.560068293e-07
0.0095625,-8.754194596e-07
0.009583333333,-7.918938536e-07
0.009604166667,-7.063777616e-07
0.009625,-6.191449984e-07
0.009645833333,-5.288516718e-07
0.009666666667,-4.364317192e-07
0.0096875,-3.400431297e-07
0.009708333333,-2.429366646e-07
0.009729166667,-1.440470356e-07
0.00975,-4.65837644e-08
0.009770833333,5.126427283e-08
0.009791666667,1.490098782e-07
0.0098125,2.4816066e-07
0.009833333333,3.487828621e-07
0.009854166667,4.495645953e-07
0.009875,5.496291919e-07
0.009895833333,6.474908787e-07
0.009916666667,7.432882398e-07
0.0099375,8.384702141e-07
0.009958333333,9.327347925e-07
0.009979166667,1.027871463e-06
0.01,1.200703991e-06
0.01002083333,1.414189001e-06
0.01004166667,1.512864628e-06
0.0100625,1.502668511e-06
0.01008333333,1.484140512e-06
0.01010416667,1.52322059e-06
0.010125,1.590490115e-06
0.01014583333,1.705461273e-06
0.01016666667,1.758667054e-06
0.0101875,1.758419558e-06
0.01020833333,1.746813041e-06
0.01022916667,1.779396598e-06
0.01025,1.838349135e-06
0.01027083333,1.942473318e-06
0.01029166667,2.035281796e-06
0.0103125,2.094265483e-06
0.01033333333,2.111236427e-06
0.01035416667,2.136685453e-06
0.010375,2.150663477e-06
0.01039583333,2.178069963e-06
0.01041666667,2.138188165e-06
0.0104375,2.042296273e-06
0.01045833333,1.934716465e-06
0.01047916667,1.932103487e-06
0.0105,1.974865654e-06
0.01052083333,2.084200105e-06
0.01054166667,2.128426786e-06
0.0105625,2.107235105e-06
0.01058333333,2.015956625e-06
0.01060416667,1.924797971e-06
0.010625,1.839053652e-06
0.01064583333,1.845802217e-06
0.01066666667,1.83409793e-06
0.0106875,1.771516395e-06
0.01070833333,1.559230554e-06
0.01072916667,1.373610871e-06
0.01075,1.204369028e-06
0.01077083333,1.166106472e-06
0.01079166667,1.134375339e-06
0.0108125,1.115991154e-06
0.01083333333,1.038592814e-06
0.01085416667,9.57055363e-07
0.010875,8.432746199e-07
0.01089583333,7.687885955e-07
0.01091666667,6.412798825e-07
0.0109375,5.24301754e-07
0.01095833333,3.178777774e-07
0.01097916667,1.755067274e-07
0.011,-2.870862659e-08
0.01102083333,-1.614511547e-07
0.01104166667,-2.377223041e-07
0.0110625,-3.345356276e-07
0.01108333333,-4.507324434e-07
0.01110416667,-5.176450486e-07
0.011125,-6.345916859e-07
0.01114583333,-7.23819312e-07
0.01116666667,-8.226397767e-07
0.0111875,-8.304313042e-07
0.01120833333,-9.277195545e-07
0.01122916667,-1.006178991e-06
0.01125,-1.135873845e-06
0.01127083333,-1.322867206e-06
0.01129166667,-1.537547746e-06
0.0113125,-1.663254579e-06
0.01133333333,-1.776336376e-06
0.01135416667,-1.822678996e-06
0.011375,-1.913129836e-06
0.01139583333,-1.987614041e-06
0.01141666667,-2.092998784e-06
0.0114375,-2.155042012e-06
0.01145833333,-2.194477247e-06
0.01147916667,-2.121824764e-06
0.0115,-2.128740789e-06
0.01152083333,-2.165760407e-06
0.01154166667,-2.285352139e-06
0.0115625,-2.432103201e-06
0.01158333333,-2.546287988e-06
0.01160416667,-2.55141731e-06
0.011625,-2.504152008e-06
0.01164583333,-2.495778517e-06
0.01166666667,-2.587431027e-06
0.0116875,-2.669921514e-06
0.01170833333,-2.77922345e-06
0.01172916667,-2.648595682e-06
0.01175,-2.419786142e-06
0.01177083333,-2.197179356e-06
0.01179166667,-2.121387297e-06
0.0118125,-2.089584314e-06
0.01183333333,-2.16016474e-06
0.01185416667,-2.100754045e-06
0.011875,-1.979346735e-06
0.01189583333,-1.889829832e-06
0.01191666667,-1.866238108e-06
0.0119375,-1.87054718e-06
0.01195833333,-1.890508543e-06
0.01197916667,-1.742127438e-06
0.012,-1.647474278e-06
0.01202083333,-1.393799607e-06
0.01204166667,-1.378292495e-06
0.0120625,-1.313616281e-06
0.01208333333,-1.257745794e-06
0.01210416667,-1.046833177e-06
0.012125,-7.120805208e-07
0.01214583333,-4.42194164e-07
0.01216666667,-4.531723903e-07
0.0121875,-4.736016876e-07
0.01220833333,-6.244215456e-07
0.01222916667,-5.414793804e-07
0.01225,-3.898277896e-07
0.01227083333,-8.446939859e-08
0.01229166667,2.193419562e-07
0.0123125,3.820757968e-07
0.01233333333,3.141111051e-07
0.01235416667,4.850924142e-07
0.012375,6.892425972e-07
0.01239583333,1.050734227e-06
0.01241666667,1.326184815e-06
0.0124375,1.617291673e-06
0.01245833333,1.696412482e-06
0.01247916667,1.724361368e-06
0.0125,1.710263405e-06
0.01252083333,1.714000973e-06
0.01254166667,1.667764764e-06
0.0125625,1.713031452e-06
0.01258333333,1.702202212e-06
0.01260416667,1.822770628e-06
0.012625,2.002795327e-06
0.01264583333,2.212708068e-06
0.01266666667,2.181859827e-06
0.0126875,2.273389327e-06
0.01270833333,2.318278575e-06
0.01272916667,2.475449037e-06
0.01275,2.719920531e-06
0.01277083333,3.054440413e-06
0.01279166667,3.021046496e-06
0.0128125,3.009488864e-06
0.01283333333,2.788257007e-06
0.01285416667,2.663717396e-06
0.012875,2.724505521e-06
0.01289583333,2.927152309e-06
0.01291666667,2.947620033e-06
0.0129375,2.919513236e-06
0.01295833333,2.866522436e-06
0.01297916667,2.798297146e-06
0.013,2.659279971e-06
0.01302083333,2.77242566e-06
0.01304166667,2.752776709e-06
0.0130625,2.848202485e-06
0.01308333333,2.719887334e-06
0.01310416667,2.582271236e-06
0.013125,2.542563379e-06
0.01314583333,2.461188615e-06
0.01316666667,2.192487273e-06
0.0131875,1.93627784e-06
0.01320833333,1.722617981e-06
0.01322916667,1.694866114e-06
0.01325,1.738354968e-06
0.01327083333,1.621510933e-06
0.01329166667,1.270296252e-06
0.0133125,1.071282099e-06
0.01333333333,9.867837889e-07
0.01335416667,8.189183518e-07
0.013375,7.791820735e-07
0.01339583333,1.006656134e-06
0.01341666667,1.009109496e-06
0.0134375,7.91614525e-07
0.01345833333,3.227362413e-07
0.01347916667,1.136515948e-07
0.0135,-2.837396096e-08
0.01352083333,1.824695772e-08
0.01354166667,7.682672276e-09
0.0135625,-1.18372526e-07
0.01358333333,-3.912679745e-07
0.01360416667,-5.240952419e-07
0.013625,-6.897699336e-07
0.01364583333,-6.653622222e-07
0.01366666667,-8.297905651e-07
0.0136875,-9.904633771e-07
0.01370833333,-1.365892103e-06
0.01372916667,-1.361890327e-06
0.01375,-1.502208534e-06
0.01377083333,-1.744747237e-06
0.01379166667,-2.181137233e-06
0.0138125,-2.525067657e-06
0.01383333333,-2.896805199e-06
0.01385416667,-2.972318271e-06
0.013875,-3.089083748e-06
0.01389583333,-2.782186584e-06
0.01391666667,-2.559412451e-06
0.0139375,-2.715784376e-06
0.01395833333,-3.09407551e-06
0.01397916667,-3.266477506e-06
0.014,-3.374603693e-06
0.01402083333,-3.042251592e-06
0.01404166667,-2.965191925e-06
0.0140625,-2.75305797e-06
0.01408333333,-2.927585911e-06
0.01410416667,-2.846251846e-06
0.014125,-2.861921985e-06
0.01414583333,-2.789827249e-06
0.01416666667,-2.672850542e-06
0.0141875,-2.700341156e-06
0.01420833333,-2.727887022e-06
0.01422916667,-2.626738478e-06
0.01425,-2.50881385e-06
0.01427083333,-2.292273621e-06
0.01429166667,-2.26103748e-06
0.0143125,-2.521611577e-06
0.01433333333,-3.111350225e-06
0.01435416667,-3.209270744e-06
0.014375,-2.870235676e-06
0.01439583333,-2.512211267e-06
0.01441666667,-2.251658998e-06
0.0144375,-2.087673238e-06
0.01445833333,-2.302054554e-06
0.01447916667,-2.643578455e-06
0.0145,-2.808284535e-06
0.01452083333,-2.481555839e-06
0.01454166667,-2.026195034e-06
0.0145625,-1.456198333e-06
0.01458333333,-1.017702971e-06
0.01460416667,-8.395206237e-07
0.014625,-7.931582786e-07
0.01464583333,-4.962847129e-07
0.01466666667,-2.765785894e-07
0.0146875,8.331977597e-08
0.01470833333,3.23357142e-07
0.01472916667,4.626987788e-07
0.01475,5.006761512e-07
0.01477083333,7.310614478e-07
0.01479166667,1.010708274e-06
0.0148125,7.41184067e-07
0.01483333333,5.522277888e-07
0.01485416667,8.178811868e-07
0.014875,1.273288376e-06
0.01489583333,1.539788173e-06
0.01491666667,1.908068725e-06
0.0149375,2.297861101e-06
0.01495833333,2.198007223e-06
0.01497916667,1.954522759e-06
0.015,1.324968025e-06
0.01502083333,1.355252948e-06
0.01504166667,1.469445579e-06
0.0150625,1.794856303e-06
0.01508333333,2.199366008e-06
0.01510416667,2.693690021e-06
0.015125,2.836649628e-06
0.01514583333,2.932349616e-06
0.01516666667,3.003309985e-06
0.0151875,3.492835049e-06
0.01520833333,3.982848284e-06
0.01522916667,4.521846222e-06
0.01525,4.205951427e-06
0.01527083333,4.118538527e-06
0.01529166667,3.667072406e-06
0.0153125,3.323172677e-06
0.01533333333,3.073184644e-06
0.01535416667,3.387297284e-06
0.015375,2.934871645e-06
0.01539583333,3.316662742e-06
0.01541666667,3.434587825e-06
0.0154375,3.531168886e-06
0.01545833333,3.689645837e-06
0.01547916667,3.829957222e-06
0.0155,3.944588116e-06
0.01552083333,3.678327175e-06
0.01554166667,3.42113367e-06
0.0155625,2.81633811e-06
0.01558333333,2.26824568e-06
0.01560416667,2.36765527e-06
0.015625,2.27528767e-06
0.01564583333,2.462091516e-06
0.01566666667,2.028356676e-06
0.0156875,1.755608309e-06
0.01570833333,1.915925395e-06
0.01572916667,2.214589358e-06
0.01575,2.722167892e-06
0.01577083333,2.75813386e-06
0.01579166667,2.3287771e-06
0.0158125,1.694662387e-06
0.01583333333,1.524020036e-06
0.01585416667,1.176755632e-06
0.015875,1.37805705e-06
0.01589583333,1.546343469e-06
0.01591666667,1.280542847e-06
0.0159375,1.058308953e-06
0.01595833333,5.309486255e-07
0.01597916667,5.946135957e-07
0.016,4.328285286e-07
0.01602083333,-1.756257006e-08
0.01604166667,-4.254215753e-07
0.0160625,-6.319475006e-07
0.01608333333,-1.045447902e-06
0.01610416667,-1.604611157e-06
0.016125,-1.953702395e-06
0.01614583333,-2.259125949e-06
0.01616666667,-2.493019792e-06
0.0161875,-2.796331273e-06
0.01620833333,-2.827230446e-06
0.01622916667,-2.468966613e-06
0.01625,-2.092127716e-06
0.01627083333,-1.663788453e-06
0.01629166667,-1.978255113e-06
0.0163125,-2.465207672e-06
0.01633333333,-3.123806437e-06
0.01635416667,-3.380084308e-06
0.016375,-3.36683047e-06
0.01639583333,-3.048580083e-06
0.01641666667,-2.983974582e-06
0.0164375,-2.724873184e-06
0.01645833333,-2.598847004e-06
0.01647916667,-3.34832157e-06
0.0165,-3.637979489e-06
0.01652083333,-3.170981699e-06
0.01654166667,-2.811969125e-06
0.0165625,-2.387749646e-06
0.01658333333,-2.672069058e-06
0.01660416667,-2.527057859e-06
0.016625,-3.606344762e-06
0.01664583333,-3.710324336e-06
0.01666666667,-4.550197445e-06
0.0166875,-5.053523637e-06
0.01670833333,-5.120369224e-06
0.01672916667,-5.096166205e-06
0.01675,-4.389031801e-06
0.01677083333,-3.29688487e-06
0.01679166667,-3.461110282e-06
0.0168125,-3.448697726e-06
0.01683333333,-3.455436399e-06
0.01685416667,-3.507202564e-06
0.016875,-3.32412219e-06
0.01689583333,-2.468101911e-06
0.01691666667,-2.471640983e-06
0.0169375,-1.895047717e-06
0.01695833333,-2.382247658e-06
0.01697916667,-2.991470865e-06
0.017,-3.828602075e-06
0.01702083333,-3.538148576e-06
0.01704166667,-2.858130301e-06
0.0170625,-2.164515308e-06
0.01708333333,-8.802715001e-07
0.01710416667,-9.430254977e-08
0.017125,5.111874088e-07
0.01714583333,8.713830653e-07
0.01716666667,6.783773188e-07
0.0171875,1.512050858e-07
0.01720833333,-4.47279433e-07
0.01722916667,-5.902274438e-07
0.01725,-9.539951407e-07
0.01727083333,-6.652456364e-07
0.01729166667,-2.579008083e-07
0.0173125,-6.487932751e-07
0.01733333333,-6.971295079e-07
0.01735416667,-4.784770908e-07
0.017375,5.300263979e-07
0.01739583333,1.278004447e-06
0.01741666667,2.921898158e-06
0.0174375,4.012895261e-06
0.01745833333,4.061243089e-06
0.01747916667,3.632616426e-06
0.0175,3.059769824e-06
0.01752083333,1.266949994e-06
0.01754166667,4.175781214e-07
0.0175625,2.258864242e-07
0.01758333333,6.252550975e-07
0.01760416667,1.498757115e-06
0.017625,3.120383553e-06
0.01764583333,3.830831247e-06
0.01766666667,4.339326551e-06
0.0176875,4.627013823e-06
0.01770833333,5.050161235e-06
0.01772916667,5.212952601e-06
0.01775,5.667910955e-06
0.01777083333,5.861049431e-06
0.01779166667,4.581459962e-06
0.0178125,3.45543981e-06
0.01783333333,2.648051122e-06
0.01785416667,2.55466739e-06
0.017875,2.119205647e-06
0.01789583333,2.892642442e-06
0.01791666667,2.699519882e-06
0.0179375,3.765513611e-06
0.01795833333,4.22104722e-06
0.01797916667,5.288826742e-06
0.018,5.742384019e-06
0.01802083333,5.052426786e-06
0.01804166667,3.396952707e-06
0.0180625,2.983124659e-06
0.01808333333,2.294648084e-06
0.01810416667,1.98751809e-06
0.018125,1.900651341e-06
0.01814583333,2.914649485e-06
0.01816666667,3.340386456e-06
0.0181875,3.569619594e-06
0.01820833333,3.488840775e-06
0.01822916667,4.110742793e-06
0.01825,4.561202786e-06
0.01827083333,4.296290626e-06
0.01829166667,3.906628535e-06
0.0183125,3.136444775e-06
0.01833333333,1.997396339e-06
0.01835416667,1.123721631e-06
0.018375,4.688403124e-07
0.01839583333,3.191675546e-07
0.01841666667,4.146255606e-08
0.0184375,-9.735908861e-07
0.01845833333,-2.138026048e-06
0.01847916667,-1.823007665e-06
0.0185,-3.001676703e-07
0.01852083333,4.286553406e-07
0.01854166667,2.964198131e-07
0.0185625,-2.900208642e-07
0.01858333333,-1.29788009e-06
0.01860416667,-2.260090696e-06
0.018625,-1.660685598e-06
0.01864583333,-1.329925453e-06
0.01866666667,-8.816628565e-07
0.0186875,-3.629983212e-07
0.01870833333,-1.245475005e-06
0.01872916667,-7.476348856e-07
0.01875,-5.778474588e-07
0.01877083333,-1.199548592e-06
0.01879166667,-1.750156343e-06
0.0188125,-2.3888133e-06
0.01883333333,-2.866899877e-06
0.01885416667,-3.481196018e-06
0.018875,-3.054525905e-06
0.01889583333,-3.228735295e-06
0.01891666667,-3.094051863e-06
0.0189375,-4.019356311e-06
0.01895833333,-5.521813364e-06
0.01897916667,-6.191266948e-06
0.019,-4.993451512e-06
0.01902083333,-4.166965937e-06
0.01904166667,-3.728044703e-06
0.0190625,-3.988792741e-06
0.01908333333,-5.150790912e-06
0.01910416667,-6.294550076e-06
0.019125,-6.509691502e-06
0.01914583333,-5.922352102e-06
0.01916666667,-4.804428954e-06
0.0191875,-4.138956683e-06
0.01920833333,-3.777622851e-06
0.01922916667,-2.794069587e-06
0.01925,-2.810333854e-06
0.01927083333,-2.567836418e-06
0.01929166667,-3.124534487e-06
0.0193125,-3.58336888e-06
0.01933333333,-3.642997399e-06
0.01935416667,-2.762564009e-06
0.019375,-2.845033123e-06
0.01939583333,-2.05625247e-06
0.01941666667,-2.49841878e-06
0.0194375,-3.314580226e-06
0.01945833333,-4.725552117e-06
0.01947916667,-4.464518952e-06
0.0195,-3.320121323e-06
0.01952083333,-1.283111601e-06
0.01954166667,-6.492394959e-07
0.0195625,2.735623639e-08
0.01958333333,-9.05446484e-07
0.01960416667,-1.27261842e-06
0.019625,-2.047867611e-06
0.01964583333,-1.969264531e-06
0.01966666667,-1.757344762e-06
0.0196875,-2.116300948e-06
0.01970833333,-2.105554813e-06
0.01972916667,-1.808812272e-06
0.01975,-1.789775183e-06
0.01977083333,-4.354231748e-07
0.01979166667,-3.1919771e-07
0.0198125,5.960236535e-07
0.01983333333,1.644237727e-06
0.01985416667,2.869482614e-06
0.019875,4.738833013e-06
0.01989583333,4.510845883e-06
0.01991666667,4.825174074e-06
0.0199375,4.530389106e-06
0.01995833333,3.918926268e-06
0.01997916667,1.665148829e-06
0.02,-2.264663635e-06
0.02002083333,-2.550273166e-06
0.02004166667,-1.83951056e-06
0.0200625,-1.740464427e-06
0.02008333333,-1.060829391e-06
0.02010416667,-1.022891183e-06
0.020125,5.864808372e-08
0.02014583333,1.247893806e-06
0.02016666667,2.423380238e-06
0.0201875,1.953900664e-06
0.02020833333,2.376178145e-06
0.02022916667,1.395285381e-06
0.02025,8.642027751e-07
0.02027083333,-2.092065188e-08
0.02029166667,-3.933168955e-07
0.0203125,-1.908199238e-06
0.02033333333,-2.165998467e-06
0.02035416667,-1.193190428e-06
0.020375,-1.619741852e-07
0.02039583333,7.99508598e-07
0.02041666667,4.15120212e-07
0.0204375,2.767956175e-07
0.02045833333,8.827400961e-07
0.02047916667,1.151992365e-06
0.0205,1.421917659e-06
0.02052083333,3.800764716e-07
0.02054166667,-5.56744908e-07
0.0205625,-2.51923143e-06
0.02058333333,-4.289792741e-06
0.02060416667,-5.386177691e-06
0.020625,-5.043026249e-06
0.02064583333,-3.882911187e-06
0.02066666667,-4.157542662e-06
0.0206875,-4.420424375e-06
0.02070833333,-5.119585239e-06
0.02072916667,-4.404243555e-06
0.02075,-4.283824637e-06
0.02077083333,-3.693529834e-06
0.02079166667,-3.970752914e-06
0.0208125,-5.500900443e-06
0.02083333333,-6.258593203e-06
0.02085416667,-7.158022981e-06
0.020875,-8.960229025e-06
0.02089583333,-8.61369881e-06
0.02091666667,-1.007689207e-05
0.0209375,-1.093986612e-05
0.02095833333,-1.051307299e-05
0.02097916667,-9.553168638e-06
0.021,-9.127074009e-06
0.02102083333,-7.72731255e-06
0.02104166667,-9.551100447e-06
0.0210625,-9.986611985e-06
0.02108333333,-1.084490577e-05
0.02110416667,-1.224521293e-05
0.021125,-1.27343219e-05
0.02114583333,-1.330902251e-05
0.02116666667,-1.387828252e-05
0.0211875,-1.76023641e-05
0.02120833333,-2.045945439e-05
0.02122916667,-2.096429489e-05
0.02125,-2.078899161e-05
0.02127083333,-1.918759153e-05
0.02129166667,-1.813655217e-05
0.0213125,-1.866125604e-05
0.02133333333,-1.762056127e-05
0.02135416667,-1.740343941e-05
0.021375,-1.699502172e-05
0.02139583333,-1.689183409e-05
0.02141666667,-1.709642311e-05
0.0214375,-1.939750291e-05
0.02145833333,-2.03501495e-05
0.02147916667,-2.266295269e-05
0.0215,-2.160773874e-05
0.02152083333,-2.24271098e-05
0.02154166667,-2.209126433e-05
0.0215625,-2.384068102e-05
0.02158333333,-2.462543307e-05
0.02160416667,-2.488677274e-05
0.021625,-2.384690924e-05
0.02164583333,-2.244536336e-05
0.02166666667,-2.277667227e-05
0.0216875,-2.397453318e-05
0.02170833333,-2.566065814e-05
0.02172916667,-2.667220724e-05
0.02175,-2.619003862e-05
0.02177083333,-2.734662121e-05
0.02179166667,-2.636757017e-05
0.0218125,-2.631916323e-05
0.02183333333,-2.824656258e-05
0.02185416667,-2.926058914e-05
0.021875,-2.966875581e-05
0.02189583333,-2.747338476e-05
0.02191666667,-2.65682429e-05
0.0219375,-2.774369568e-05
0.02195833333,-2.988888446e-05
0.02197916667,-3.153454963e-05
0.022,-3.299064701e-05
0.02202083333,-3.072940308e-05
0.02204166667,-3.055855996e-05
0.0220625,-3.056977221e-05
0.02208333333,-3.079969974e-05
0.02210416667,-3.23048298e-05
0.022125,-3.326429578e-05
0.02214583333,-3.165514136e-05
0.02216666667,-3.243705942e-05
0.0221875,-3.327837476e-05
0.02220833333,-3.618104165e-05
0.02222916667,-3.697472857e-05
0.02225,-3.624113742e-05
0.02227083333,-3.448549614e-05
0.02229166667,-3.373402797e-05
0.0223125,-3.378887777e-05
0.02233333333,-3.579675831e-05
0.02235416667,-3.78300756e-05
0.022375,-3.886722334e-05
0.02239583333,-3.737277075e-05
0.02241666667,-3.599045522e-05
0.0224375,-3.67646353e-05
0.02245833333,-3.927038415e-05
0.02247916667,-4.376150537e-05
0.0225,-4.79997907e-05
0.02252083333,-4.922513472e-05
0.02254166667,-4.918736522e-05
0.0225625,-4.615542639e-05
0.02258333333,-4.347589129e-05
0.02260416667,-4.315015394e-05
0.022625,-4.339643783e-05
0.02264583333,-4.590968456e-05
0.02266666667,-4.632536002e-05
0.0226875,-4.555335909e-05
0.02270833333,-4.744125908e-05
0.02272916667,-4.873399666e-05
0.02275,-5.045527359e-05
0.02277083333,-5.303711077e-05
0.02279166667,-5.333559602e-05
0.0228125,-5.589519424e-05
0.02283333333,-5.529140981e-05
0.02285416667,-5.670735118e-05
0.022875,-5.799625796e-05
0.02289583333,-5.804471584e-05
0.02291666667,-5.789387433e-05
0.0229375,-5.680114919e-05
0.02295833333,-5.70373486e-05
0.02297916667,-5.979360139e-05
0.023,-6.409057823e-05
0.02302083333,-6.950508396e-05
0.02304166667,-7.241889398e-05
0.0230625,-7.440261106e-05
0.02308333333,-7.225023001e-05
0.02310416667,-7.103034295e-05
0.023125,-7.300192374e-05
0.02314583333,-7.428309618e-05
0.02316666667,-7.609741442e-05
0.0231875,-7.860215555e-05
0.02320833333,-7.646526501e-05
0.02322916667,-7.595265197e-05
0.02325,-7.734866813e-05
0.02327083333,-7.769377407e-05
0.02329166667,-8.119582344e-05
0.0233125,-8.539995179e-05
0.02333333333,-8.62825982e-05
0.02335416667,-8.676436846e-05
0.023375,-8.719987818e-05
0.02339583333,-8.6645181e-05
0.02341666667,-8.979634003e-05
0.0234375,-9.271722229e-05
0.02345833333,-9.144407522e-05
0.02347916667,-9.144805517e-05
0.0235,-9.265811968e-05
0.02352083333,-9.412417421e-05
0.02354166667,-9.972786211e-05
0.0235625,-0.0001035487076
0.02358333333,-0.0001066825062
0.02360416667,-0.0001075112814
0.023625,-0.0001070042999
0.02364583333,-0.0001065244942
0.02366666667,-0.0001092980165
0.0236875,-0.0001125591225
0.02370833333,-0.0001169453462
0.02372916667,-0.0001187310409
0.02375,-0.0001197783931
0.02377083333,-0.0001189444083
0.02379166667,-0.0001211936251
0.0238125,-0.0001226893801
0.02383333333,-0.0001281249424
0.02385416667,-0.000130417844
0.023875,-0.0001322720636
0.02389583333,-0.000132714631
0.02391666667,-0.0001359826128
0.0239375,-0.0001413763821
0.02395833333,-0.0001439779589
0.02397916667,-0.0001461844513
0.024,-0.0001468655246
0.02402083333,-0.0001478075719
0.02404166667,-0.000150838081
0.0240625,-0.0001561710815
0.02408333333,-0.0001604496792
0.02410416667,-0.0001635256776
0.024125,-0.0001626353187
0.02414583333,-0.0001625074074
0.02416666667,-0.0001627133461
0.0241875,-0.0001636488887
0.02420833333,-0.0001673012448
0.02422916667,-0.0001712840167
0.02425,-0.0001744365727
0.02427083333,-0.0001764900371
0.02429166667,-0.000177005626
0.0243125,-0.0001798179001
0.02433333333,-0.0001818429155
0.02435416667,-0.00018462757
0.024375,-0.0001848269749
0.02439583333,-0.0001834460854
0.02441666667,-0.0001841660123
0.0244375,-0.0001861566707
0.02445833333,-0.0001859706099
0.02447916667,-0.0001879978081
0.0245,-0.0001894621673
0.02452083333,-0.0001909523999
0.02454166667,-0.0001937531051
0.0245625,-0.0001988203585
0.02458333333,-0.000206490673
0.02460416667,-0.0002127148473
0.024625,-0.0002161064476
0.02464583333,-0.0002191201347
0.02466666667,-0.0002180852171
0.0246875,-0.0002193035616
0.02470833333,-0.0002191072999
0.02472916667,-0.0002226891083
0.02475,-0.0002269483666
0.02477083333,-0.0002289278636
0.02479166667,-0.0002309814445
0.0248125,-0.000234390187
0.02483333333,-0.0002385207918
0.02485416667,-0.000242570226
0.024875,-0.0002458601666
0.02489583333,-0.0002502432617
0.02491666667,-0.0002527995966
0.0249375,-0.0002547363983
0.02495833333,-0.0002548470511
0.02497916667,-0.000252323749
0.025,-0.0002517749381
0.02502083333,-0.0002524887386
0.02504166667,-0.0002563018061
0.0250625,-0.0002626087226
0.02508333333,-0.0002688080422
0.02510416667,-0.0002737243776
0.025125,-0.0002792591986
0.02514583333,-0.0002836982603
0.02516666667,-0.0002888719609
0.0251875,-0.0002945082961
0.02520833333,-0.0002992677037
0.02522916667,-0.0003021953744
0.02525,-0.0003038235009
0.02527083333,-0.0003053156834
0.02529166667,-0.000306679809
0.0253125,-0.0003101312614
0.02533333333,-0.0003141547495
0.02535416667,-0.0003180011699
0.025375,-0.0003217496269
0.02539583333,-0.0003249280853
0.02541666667,-0.0003289657761
0.0254375,-0.0003350468178
0.02545833333,-0.0003396981047
0.02547916667,-0.0003399105917
0.0255,-0.0003409716301
0.02552083333,-0.000341541192
0.02554166667,-0.0003451032971
0.0255625,-0.0003519290767
0.02558333333,-0.000356464152
0.02560416667,-0.0003610987042
0.025625,-0.0003654608154
0.02564583333,-0.0003686271375
0.02566666667,-0.0003746314324
0.0256875,-0.0003826598404
0.02570833333,-0.0003903990437
0.02572916667,-0.0003963091585
0.02575,-0.0003990838013
0.02577083333,-0.0003988910757
0.02579166667,-0.0003999210894
0.0258125,-0.0004066211986
0.02583333333,-0.0004119250807
0.02585416667,-0.0004167325096
0.025875,-0.0004218332469
0.02589583333,-0.0004233804648
0.02591666667,-0.0004249970661
0.0259375,-0.0004310741497
0.02595833333,-0.0004355157726
0.02597916667,-0.0004408100503
0.026,-0.0004449612752
0.02602083333,-0.0004466718819
0.02604166667,-0.0004496239417
0.0260625,-0.0004563648254
0.02608333333,-0.0004631221236
0.02610416667,-0.0004713172093
0.026125,-0.0004735529656
0.02614583333,-0.0004770614905
0.02616666667,-0.0004822789633
0.0261875,-0.0004886203678
0.02620833333,-0.0004956855555
0.02622916667,-0.0005044998834
0.02625,-0.0005087194149
0.02627083333,-0.000511879276
0.02629166667,-0.0005136671243
0.0263125,-0.0005202574539
0.02633333333,-0.0005249059177
0.02635416667,-0.0005311332643
0.026375,-0.0005366581026
0.02639583333,-0.0005404166877
0.02641666667,-0.0005437477375
0.0264375,-0.0005492668133
0.02645833333,-0.0005547706387
0.02647916667,-0.0005621424643
0.0265,-0.0005662803305
0.02652083333,-0.0005706837983
0.02654166667,-0.0005747833638
0.0265625,-0.0005817188066
0.02658333333,-0.0005899549578
0.02660416667,-0.000597514736
0.026625,-0.00060255063
0.02664583333,-0.0006056830753
0.02666666667,-0.0006099895108
0.0266875,-0.0006147183012
0.02670833333,-0.0006229248247
0.02672916667,-0.0006299711531
0.02675,-0.0006349303294
0.02677083333,-0.0006375404191
0.02679166667,-0.0006408304325
0.0268125,-0.0006470233202
0.02683333333,-0.0006584413932
0.02685416667,-0.0006695940392
0.026875,-0.0006772270426
0.02689583333,-0.0006795203662
0.02691666667,-0.0006827858742
0.0269375,-0.000686285377
0.02695833333,-0.0006914418191
0.02697916667,-0.0007001751219
0.027,-0.0007072466542
0.02702083333,-0.00070789858
0.02704166667,-0.0007107055862
0.0270625,-0.0007177100051
0.02708333333,-0.0007248608163
0.02710416667,-0.0007360948366
0.027125,-0.0007445158553
0.02714583333,-0.0007481299108
0.02716666667,-0.0007541076629
0.0271875,-0.0007568821893
0.02720833333,-0.0007628063904
0.02722916667,-0.0007728829514
0.02725,-0.0007751276717
0.02727083333,-0.0007750937948
0.02729166667,-0.0007745492039
0.0273125,-0.0007795163547
0.02733333333,-0.000790263759
0.02735416667,-0.000805520569
0.027375,-0.0008168715867
0.02739583333,-0.0008249490638
0.02741666667,-0.0008287479868
0.0274375,-0.0008336839383
0.02745833333,-0.0008410838782
0.02747916667,-0.0008570470964
0.0275,-0.0008700732142
0.02752083333,-0.0008790811989
0.02754166667,-0.0008829770377
0.0275625,-0.000884512323
0.02758333333,-0.0008875436615
0.02760416667,-0.0008996701217
0.027625,-0.0009125543875
0.02764583333,-0.0009274722543
0.02766666667,-0.0009388217586
0.0276875,-0.0009439430432
0.02770833333,-0.0009486521012
0.02772916667,-0.0009585446096
0.02775,-0.0009686265257
0.02777083333,-0.0009789088508
0.02779166667,-0.0009842875879
0.0278125,-0.0009885065956
0.02783333333,-0.0009928432992
0.02785416667,-0.001001462922
0.027875,-0.001010168693
0.02789583333,-0.001017077244
0.02791666667,-0.001027277787
0.0279375,-0.001036707545
0.02795833333,-0.001041077776
0.02797916667,-0.001054429216
0.028,-0.001064437558
0.02802083333,-0.001070645638
0.02804166667,-0.001079148031
0.0280625,-0.001084849006
0.02808333333,-0.001086711301
0.02810416667,-0.00109398819
0.028125,-0.001098169247
0.02814583333,-0.00110598607
0.02816666667,-0.001117967884
0.0281875,-0.001125615905
0.02820833333,-0.001131529454
0.02822916667,-0.001138560823
0.02825,-0.00114896032
0.02827083333,-0.001158492523
0.02829166667,-0.001171517186
0.0283125,-0.001182738459
0.02833333333,-0.001190463779
0.02835416667,-0.001198208542
0.028375,-0.001200568979
0.02839583333,-0.001207362395
0.02841666667,-0.001223642495
0.0284375,-0.001234149677
0.02845833333,-0.001239055418
0.02847916667,-0.001246011932
0.0285,-0.001254527713
0.02852083333,-0.001261876896
0.02854166667,-0.001277038013
0.0285625,-0.001292594592
0.02858333333,-0.001312040258
0.02860416667,-0.001328495098
0.028625,-0.001335970592
0.02864583333,-0.001334358938
0.02866666667,-0.001339673181
0.0286875,-0.001344364951
0.02870833333,-0.001357519417
0.02872916667,-0.001375265303
0.02875,-0.001390762511
0.02877083333,-0.001392060891
0.02879166667,-0.001394517603
0.0288125,-0.001397777814
0.02883333333,-0.001399963978
0.02885416667,-0.001412170939
0.028875,-0.001429929049
0.02889583333,-0.001432311255
0.02891666667,-0.001443839632
0.0289375,-0.001451373915
0.02895833333,-0.001450640615
0.02897916667,-0.001459389343
0.029,-0.001471485128
0.02902083333,-0.001475488767
0.02904166667,-0.001489371178
0.0290625,-0.001502790954
0.02908333333,-0.001519372221
0.02910416667,-0.001537961769
0.029125,-0.00154834101
0.02914583333,-0.001546203624
0.02916666667,-0.001554141869
0.0291875,-0.001556724194
0.02920833333,-0.001568887033
0.02922916667,-0.001583869336
0.02925,-0.001606267178
0.02927083333,-0.001628658967
0.02929166667,-0.001635998022
0.0293125,-0.001646962366
0.02933333333,-0.001646686229
0.02935416667,-0.001656117267
0.029375,-0.001678138156
0.02939583333,-0.001680594985
0.02941666667,-0.001705602393
0.0294375,-0.001719106454
0.02945833333,-0.001721628825
0.02947916667,-0.001706952695
0.0295,-0.001710060984
0.02952083333,-0.001709233155
0.02954166667,-0.001734227408
0.0295625,-0.001761741238
0.02958333333,-0.001783197396
0.02960416667,-0.001817051903
0.029625,-0.001815402647
0.02964583333,-0.001812882256
0.02966666667,-0.00180619664
0.0296875,-0.001816865988
0.02970833333,-0.001844748971
0.02972916667,-0.00184023683
0.02975,-0.001856718096
0.02977083333,-0.001840573386
0.02979166667,-0.001856913208
0.0298125,-0.001868204912
0.02983333333,-0.001887437305
0.02985416667,-0.001935017877
0.029875,-0.001945604919
0.02989583333,-0.001901609125
0.02991666667,-0.001890035463
0.0299375,-0.001928265207
0.02995833333,-0.002047777874
0.02997916667,-0.002161375014
0.03,-0.001355712418
0.03002083333,-0.001496229321
0.03004166667,-0.001589001971
0.0300625,-0.001629140344
0.03008333333,-0.001611339743
0.03010416667,-0.001614124747
0.030125,-0.001604641438
0.03014583333,-0.001680152258
0.03016666667,-0.001690350589
0.0301875,-0.001722325454
0.03020833333,-0.001742747962
0.03022916667,-0.001804209896
0.03025,-0.001755907782
0.03027083333,-0.001777254045
0.03029166667,-0.001741259475
0.0303125,-0.001805340406
0.03033333333,-0.001728150295
0.03035416667,-0.00174227939
0.030375,-0.001690222416
0.03039583333,-0.001666845521
0.03041666667,-0.001663847361
0.0304375,-0.001653574524
0.03045833333,-0.001638183836
0.03047916667,-0.001640495379
0.0305,-0.00158268935
0.03052083333,-0.00155287399
0.03054166667,-0.001516475924
0.0305625,-0.001520537422
0.03058333333,-0.001522481325
0.03060416667,-0.001508254441
0.030625,-0.00152918743
0.03064583333,-0.001545580686
0.03066666667,-0.001563745202
0.0306875,-0.001604771125
0.03070833333,-0.001615710324
0.03072916667,-0.001695296378
0.03075,-0.001749624149
0.03077083333,-0.001736191218
0.03079166667,-0.001743448549
0.0308125,-0.001717991312
0.03083333333,-0.00175295549
0.03085416667,-0.001711524674
0.030875,-0.001767250942
0.03089583333,-0.001783362008
0.03091666667,-0.0018598811
0.0309375,-0.001859853277
0.03095833333,-0.00189173047
0.03097916667,-0.001878567738
0.031,-0.00189507578
0.03102083333,-0.001897338894
0.03104166667,-0.001939857961
0.0310625,-0.00183764298
0.03108333333,-0.00189811294
0.03110416667,-0.001874945941
0.031125,-0.001892221859
0.03114583333,-0.001867151586
0.03116666667,-0.001915346482
0.0311875,-0.001848619315
0.03120833333,-0.001875154674
0.03122916667,-0.001838492928
0.03125,-0.001854605158
0.03127083333,-0.001895675203
0.03129166667,-0.001925290795
0.0313125,-0.001950830803
0.03133333333,-0.001940548536
0.03135416667,-0.001936577959
0.031375,-0.001939727343
0.03139583333,-0.0019679002
0.03141666667,-0.001919102157
0.0314375,-0.001886411919
0.03145833333,-0.001839185948
0.03147916667,-0.001822389197
0.0315,-0.001798898214
0.03152083333,-0.001806221437
0.03154166667,-0.001794388867
0.0315625,-0.001838256605
0.03158333333,-0.001804446336
0.03160416667,-0.00183272385
0.031625,-0.001718224492
0.03164583333,-0.001788700232
0.03166666667,-0.001724266796
0.0316875,-0.001813770505
0.03170833333,-0.001687037293
0.03172916667,-0.001682805945
0.03175,-0.001680665882
0.03177083333,-0.001605328056
0.03179166667,-0.001532818424
0.0318125,-0.00154940295
0.03183333333,-0.001497227349
0.03185416667,-0.001495321514
0.031875,-0.001422340283
0.03189583333,-0.001454129117
0.03191666667,-0.001421740511
0.0319375,-0.001382032642
0.03195833333,-0.001357773901
0.03197916667,-0.001323488657
0.032,-0.001270289416
0.03202083333,-0.001249935245
0.03204166667,-0.001210993272
0.0320625,-0.001146648312
0.03208333333,-0.001126410789
0.03210416667,-0.00105023291
0.032125,-0.001076563029
0.03214583333,-0.001043842989
0.03216666667,-0.001072029117
0.0321875,-0.001080783084
0.03220833333,-0.001156177488
0.03222916667,-0.001089056372
0.03225,-0.001188296592
0.03227083333,-0.001123776194
0.03229166667,-0.001157057239
0.0323125,-0.001056052279
0.03233333333,-0.001073436579
0.03235416667,-0.001017117407
0.032375,-0.001039287657
0.03239583333,-0.000897230173
0.03241666667,-0.0009327457519
0.0324375,-0.0008160357247
0.03245833333,-0.0008544670418
0.03247916667,-0.0007865578518
0.0325,-0.000814809755
0.03252083333,-0.0007895052549
0.03254166667,-0.0007650760235
0.0325625,-0.00070638943
0.03258333333,-0.0006779615651
0.03260416667,-0.000625706045
0.032625,-0.0006309619639
0.03264583333,-0.000538254797
0.03266666667,-0.0004210838233
0.0326875,-0.0004841040936
0.03270833333,-0.0004783096956
0.03272916667,-0.0003674287873
0.03275,-0.0003218161291
0.03277083333,-0.0002887853771
0.03279166667,-0.0002451932232
0.0328125,-0.0002331838477
0.03283333333,-0.0001973463513
0.03285416667,-0.0002232242259
0.032875,-0.0001252390066
0.03289583333,-0.0001559694792
0.03291666667,-3.702094546e-06
0.0329375,-1.927735138e-05
0.03295833333,5.942670396e-05
0.03297916667,-5.059897376e-06
0.033,8.9100693e-05
0.03302083333,8.059106767e-05
0.03304166667,0.0001432572753
0.0330625,0.000153717323
0.03308333333,0.0002301252534
0.03310416667,0.0001839791948
0.033125,0.0003007474588
0.03314583333,0.0002536515531
0.03316666667,0.0003480373416
0.0331875,0.0003030946827
0.03320833333,0.000339629536
0.03322916667,0.0003059393202
0.03325,0.0003252757597
0.03327083333,0.0003332640044
0.03329166667,0.0003522745683
0.0333125,0.0002692534472
0.03333333333,0.0003090583486
0.03335416667,0.0003491978568
0.033375,0.0003425546747
0.03339583333,0.0004980966332
0.03341666667,0.0005642919568
0.0334375,0.0006074362318
0.03345833333,0.0006485875347
0.03347916667,0.0007364686462
0.0335,0.0008067960152
0.03352083333,0.0008881345275
0.03354166667,0.0009127053199
0.0335625,0.0009636156028
0.03358333333,0.0008895235951
0.03360416667,0.001002022764
0.033625,0.0009255971527
0.03364583333,0.001053588465
0.03366666667,0.0009672916494
0.0336875,0.0009989710525
0.03370833333,0.0009235384641
0.03372916667,0.0009917903226
0.03375,0.0009454217507
0.03377083333,0.0009869657224
0.03379166667,0.0008919682587
0.0338125,0.0009381904965
0.03383333333,0.0008918534731
0.03385416667,0.0009653323214
0.033875,0.0009669959545
0.03389583333,0.001082395902
0.03391666667,0.001070946339
0.0339375,0.001173086232
0.03395833333,0.001244473271
0.03397916667,0.001332556247
0.034,0.001412924845
0.03402083333,0.001538388198
0.03404166667,0.001622195123
0.0340625,0.001682033762
0.03408333333,0.001770129544
0.03410416667,0.001895525609
0.034125,0.002003144706
0.03414583333,0.00210879324
0.03416666667,0.002230395097
0.0341875,0.002332376549
0.03420833333,0.002406869084
0.03422916667,0.002435586415
0.03425,0.002559094923
0.03427083333,0.002520491835
0.03429166667,0.002562586451
0.0343125,0.002623548266
0.03433333333,0.00263128872
0.03435416667,0.002628651448
0.034375,0.00265169749
0.03439583333,0.0026691698
0.03441666667,0.002779436763
0.0344375,0.002773948247
0.03445833333,0.002878818428
0.03447916667,0.002931542462
0.0345,0.002973146271
0.03452083333,0.00301384367
0.03454166667,0.003159906017
0.0345625,0.003231663955
0.03458333333,0.003356192727
0.03460416667,0.003433468984
0.034625,0.003569156397
0.03464583333,0.003651795909
0.03466666667,0.003777564969
0.0346875,0.003867910709
0.03470833333,0.003960863221
0.03472916667,0.004026426468
0.03475,0.004083975684
0.03477083333,0.00415936159
0.03479166667,0.004237849731
0.0348125,0.004232038744
0.03483333333,0.004258401226
0.03485416667,0.004304956179
0.034875,0.004309500568
0.03489583333,0.004318073858
0.03491666667,0.004287756514
0.0349375,0.004316614475
0.03495833333,0.004301128909
0.03497916667,0.00428444054
0.035,0.004277700093
0.03502083333,0.004302643239
0.03504166667,0.00429679174
0.0350625,0.004378161393
0.03508333333,0.004372178111
0.03510416667,0.00441934634
0.035125,0.00440430548
0.03514583333,0.004416651092
0.03516666667,0.004475938622
0.0351875,0.004539514892
0.03520833333,0.004542751238
0.03522916667,0.004562624265
0.03525,0.004552514292
0.03527083333,0.004606463481
0.03529166667,0.004558919463
0.0353125,0.004570259247
0.03533333333,0.004526682664
0.03535416667,0.004566375632
0.035375,0.004525727592
0.03539583333,0.0045765182
0.03541666667,0.004606342409
0.0354375,0.004684143234
0.03545833333,0.004744992591
0.03547916667,0.004830953199
0.0355,0.004830552731
0.03552083333,0.00492270058
0.03554166667,0.005046826322
0.0355625,0.005035609007
0.03558333333,0.005032278132
0.03560416667,0.005095039029
0.035625,0.005089055281
0.03564583333,0.005048106425
0.03566666667,0.005095594097
0.0356875,0.005104467273
0.03570833333,0.005175398663
0.03572916667,0.005154674873
0.03575,0.00520873908
0.03577083333,0.005150048528
0.03579166667,0.005253874231
0.0358125,0.005236662924
0.03583333333,0.005293004215
0.03585416667,0.00528758904
0.035875,0.005379874725
0.03589583333,0.005388960242
0.03591666667,0.005459085573
0.0359375,0.005450536497
0.03595833333,0.005505018868
0.03597916667,0.005469281226
0.036,0.005479965359
0.03602083333,0.005465656985
0.03604166667,0.00544806011
0.0360625,0.005425494164
0.03608333333,0.005399369635
0.03610416667,0.005420675501
0.036125,0.00543921534
0.03614583333,0.005488373805
0.03616666667,0.005501723383
0.0361875,0.00555004878
0.03620833333,0.005611294881
0.03622916667,0.005667225923
0.03625,0.005731855053
0.03627083333,0.005831983872
0.03629166667,0.00595972687
0.0363125,0.006010241807
0.03633333333,0.006031396799
0.03635416667,0.006134654395
0.036375,0.006189842708
0.03639583333,0.006319722626
0.03641666667,0.006406350527
0.0364375,0.00654738117
0.03645833333,0.006592365447
0.03647916667,0.006755779032
0.0365,0.006790777668
0.03652083333,0.00694876397
0.03654166667,0.007070694119
0.0365625,0.007142898627
0.03658333333,0.007077651098
0.03660416667,0.007137789857
0.036625,0.007127103861
0.03664583333,0.007084476762
0.03666666667,0.007037587464
0.0366875,0.006953266449
0.03670833333,0.006951400079
0.03672916667,0.006919282954
0.03675,0.006937515456
0.03677083333,0.006959164049
0.03679166667,0.006879425142
0.0368125,0.006887322757
0.03683333333,0.006894409191
0.03685416667,0.006966682151
0.036875,0.007047688589
0.03689583333,0.007071829401
0.03691666667,0.00714184856
0.0369375,0.007181879133
0.03695833333,0.007305206731
0.03697916667,0.007338422351
0.037,0.007408484817
0.03702083333,0.007442202419
0.03704166667,0.007484272588
0.0370625,0.007492063567
0.03708333333,0.007572959643
0.03710416667,0.007535080891
0.037125,0.007590908557
0.03714583333,0.007514857221
0.03716666667,0.007533968426
0.0371875,0.007483969443
0.03720833333,0.00745593803
0.03722916667,0.007426273543
0.03725,0.007429649588
0.03727083333,0.007395627908
0.03729166667,0.007392024156
0.0373125,0.007438561879
0.03733333333,0.0075212745
0.03735416667,0.00746944733
0.037375,0.007622248027
0.03739583333,0.007576442789
0.03741666667,0.007622505073
0.0374375,0.00772212958
0.03745833333,0.007688193116
0.03747916667,0.007682483178
0.0375,0.007642164826
0.03752083333,0.00762367947
0.03754166667,0.007624162361
0.0375625,0.007627752144
0.03758333333,0.007590923924
0.03760416667,0.007645613048
0.037625,0.007750762161
0.03764583333,0.007818099111
0.03766666667,0.007846650667
0.0376875,0.007945056073
0.03770833333,0.007949505001
0.03772916667,0.008009586483
0.03775,0.007984967902
0.03777083333,0.007993257605
0.03779166667,0.007909303531
0.0378125,0.007897850126
0.03783333333,0.007917176932
0.03785416667,0.007947762497
0.037875,0.007915318012
0.03789583333,0.007988922298
0.03791666667,0.007972456515
0.0379375,0.008166092448
0.03795833333,0.008194021881
0.03797916667,0.008298880421
0.038,0.00829214789
0.03802083333,0.008363802917
0.03804166667,0.008398544043
0.0380625,0.008446387015
0.03808333333,0.008526964113
0.03810416667,0.008694860153
0.038125,0.00881947577
0.03814583333,0.008908302523
0.03816666667,0.009004304186
0.0381875,0.009040622972
0.03820833333,0.00906800665
0.03822916667,0.009039866738
0.03825,0.008979105391
0.03827083333,0.008988001384
0.03829166667,0.00894126948
0.0383125,0.008894730359
0.03833333333,0.008830942214
0.03835416667,0.008788906038
0.038375,0.008776363917
0.03839583333,0.008702630177
0.03841666667,0.008821711875
0.0384375,0.008829370141
0.03845833333,0.008951640688
0.03847916667,0.009017266333
0.0385,0.009074332193
0.03852083333,0.009103353135
0.03854166667,0.009248408489
0.0385625,0.009272994474
0.03858333333,0.009464209899
0.03860416667,0.00938659627
0.038625,0.009532368742
0.03864583333,0.009484951384
0.03866666667,0.009531181306
0.0386875,0.009498395957
0.03870833333,0.009542809799
0.03872916667,0.009545482695
0.03875,0.009480006993
0.03877083333,0.00939806737
0.03879166667,0.009362248704
0.0388125,0.009161410853
0.03883333333,0.009066002443
0.03885416667,0.00893106591
0.038875,0.008896957152
0.03889583333,0.008895795792
0.03891666667,0.008838131092
0.0389375,0.008836640045
0.03895833333,0.008799520321
0.03897916667,0.008803837933
0.039,0.008803974837
0.03902083333,0.008876333013
0.03904166667,0.008849876933
0.0390625,0.008900275454
0.03908333333,0.00892634131
0.03910416667,0.008981502615
0.039125,0.008917923085
0.03914583333,0.00895593781
0.03916666667,0.008934391662
0.0391875,0.009025231004
0.03920833333,0.008999170735
0.03922916667,0.009128790349
0.03925,0.00910077244
0.03927083333,0.009231898002
0.03929166667,0.009222715162
0.0393125,0.009388831444
0.03933333333,0.009320477024
0.03935416667,0.009462643415
0.039375,0.009409072809
0.03939583333,0.009548587725
0.03941666667,0.009510084055
0.0394375,0.009614408016
0.03945833333,0.009639741853
0.03947916667,0.009732836857
0.0395,0.009669999592
0.03952083333,0.009725659154
0.03954166667,0.009650075808
0.0395625,0.009730208665
0.03958333333,0.009690905921
0.03960416667,0.009712645784
0.039625,0.009655700997
0.03964583333,0.009752788581
0.03966666667,0.009715205058
0.0396875,0.009715357795
0.03970833333,0.00978822913
0.03972916667,0.009792035446
0.03975,0.009864674881
0.03977083333,0.009952246211
0.03979166667,0.009982608259
0.0398125,0.01010521315
0.03983333333,0.01028097607
0.03985416667,0.01028547063
0.039875,0.01040681545
0.03989583333,0.01045110449
0.03991666667,0.01046368107
0.0399375,0.01045373175
0.03995833333,0.01052496582
0.03997916667,0.01045859698
0.04,0.01050787047
0.04002083333,0.0104533378
0.04004166667,0.01065656915
0.0400625,0.01068132091
0.04008333333,0.0108084362
0.04010416667,0.01079424378
0.040125,0.01088588405
0.04014583333,0.01083531044
0.04016666667,0.01090392563
0.0401875,0.01079434901
0.04020833333,0.01080655959
0.04022916667,0.01064579189
0.04025,0.01066873502
0.04027083333,0.01060478576
0.04029166667,0.01060540881
0.0403125,0.0105020823
0.04033333333,0.01055748016
0.04035416667,0.01039882284
0.040375,0.01049866714
0.04039583333,0.0104075009
0.04041666667,0.01047554333
0.0404375,0.01030444819
0.04045833333,0.01021322049
0.04047916667,0.01017909218
0.0405,0.0101672411
0.04052083333,0.01010747999
0.04054166667,0.01006702147
0.0405625,0.01000779215
0.04058333333,0.01004006062
0.04060416667,0.009938588366
0.040625,0.009894348681
0.04064583333,0.009950265288
0.04066666667,0.009792149067
0.0406875,0.009804979898
0.04070833333,0.009659660049
0.04072916667,0.00965634454
0.04075,0.009511927143
0.04077083333,0.009470911697
0.04079166667,0.009306276217
0.0408125,0.009263049811
0.04083333333,0.009050988592
0.04085416667,0.009061273187
0.040875,0.008887914009
0.04089583333,0.008909507655
0.04091666667,0.008706320077
0.0409375,0.008766171522
0.04095833333,0.008759609424
0.04097916667,0.008818589151
0.041,0.008767688647
0.04102083333,0.008843928576
0.04104166667,0.008913600817
0.0410625,0.008910629898
0.04108333333,0.008867724799
0.04110416667,0.008908323012
0.041125,0.008835182525
0.04114583333,0.008822703734
0.04116666667,0.008731517009
0.0411875,0.008627747186
0.04120833333,0.008460510522
0.04122916667,0.00837797951
0.04125,0.008289360441
0.04127083333,0.008245078847
0.04129166667,0.008114282973
0.0413125,0.008088250645
0.04133333333,0.007983687334
0.04135416667,0.00793653354
0.041375,0.007891640067
0.04139583333,0.007799797226
0.04141666667,0.007792732213
0.0414375,0.007607386913
0.04145833333,0.007648150437
0.04147916667,0.007470051292
0.0415,0.007399162278
0.04152083333,0.007179065607
0.04154166667,0.007061536424
0.0415625,0.006855968852
0.04158333333,0.006910591386
0.04160416667,0.006835526787
0.041625,0.006939043291
0.04164583333,0.006854161154
0.04166666667,0.00695084082
0.0416875,0.006785223726
0.04170833333,0.006841743365
0.04172916667,0.006713496987
0.04175,0.006793156732
0.04177083333,0.006622213405
0.04179166667,0.006619313732
0.0418125,0.006450415589
0.04183333333,0.006471468136
0.04185416667,0.006327518728
0.041875,0.006323626731
0.04189583333,0.006071719807
0.04191666667,0.006062162109
0.0419375,0.005931621883
0.04195833333,0.005940597039
0.04197916667,0.005793676712
0.042,0.005728885531
0.04202083333,0.005685923155
0.04204166667,0.005639909301
0.0420625,0.005576600786
0.04208333333,0.005532954354
0.04210416667,0.005413133651
0.042125,0.005277060438
0.04214583333,0.005184361245
0.04216666667,0.00504971249
0.0421875,0.004956558347
0.04220833333,0.004802804906
0.04222916667,0.004757023416
0.04225,0.004604978021
0.04227083333,0.004560555331
0.04229166667,0.004425765481
0.0423125,0.004522932693
0.04233333333,0.0041812649
0.04235416667,0.00424752431
0.042375,0.003912468906
0.04239583333,0.004144505132
0.04241666667,0.003921938594
0.0424375,0.003850167617
0.04245833333,0.003839340759
0.04247916667,0.003838872071
0.0425,0.00363179273
0.04252083333,0.003770711599
0.04254166667,0.003493662924
0.0425625,0.00348240626
0.04258333333,0.003257421777
0.04260416667,0.003200136591
0.042625,0.003054105677
0.04264583333,0.003074318171
0.04266666667,0.002885614522
0.0426875,0.002867788309
0.04270833333,0.002621793887
0.04272916667,0.002561655827
0.04275,0.00229233061
0.04277083333,0.002244610572
0.04279166667,0.002193536144
0.0428125,0.002179986099
0.04283333333,0.002176759299
0.04285416667,0.002137532225
0.042875,0.00214017299
0.04289583333,0.002141105477
0.04291666667,0.002104142448
0.0429375,0.002049082192
0.04295833333,0.002079171361
0.04297916667,0.001906703925
0.043,0.001894916757
0.04302083333,0.001702722744
0.04304166667,0.001775115961
0.0430625,0.001663758303
0.04308333333,0.001763025182
0.04310416667,0.001719708787
0.043125,0.001843777834
0.04314583333,0.001661524992
0.04316666667,0.00174570235
0.0431875,0.001587509294
0.04320833333,0.00160365901
0.04322916667,0.001330968924
0.04325,0.001386077027
0.04327083333,0.001081827562
0.04329166667,0.001098191715
0.0433125,0.0008614622056
0.04333333333,0.0006758766831
0.04335416667,0.000700878154
0.043375,0.0008520827396
0.04339583333,0.0005967778852
0.04341666667,0.0006180707715
0.0434375,0.0004205684527
0.04345833333,0.0004052756121
0.04347916667,0.0003178186889
0.0435,0.0003931653046
0.04352083333,0.0003589560802
0.04354166667,0.0003621905635
0.0435625,0.000319830142
0.04358333333,0.0003811497591
0.04360416667,0.0003266469575
0.043625,0.0003735711216
0.04364583333,0.0003807868343
0.04366666667,0.0002867639414
0.0436875,0.000310171803
0.04370833333,0.0001918271446
0.04372916667,0.0001188986353
0.04375,4.354109842e-05
0.04377083333,6.940637832e-05
0.04379166667,7.177737643e-06
0.0438125,4.344954505e-05
0.04383333333,-8.270713442e-05
0.04385416667,-4.806423021e-06
0.043875,-0.0001092211605
0.04389583333,-7.08918742e-06
0.04391666667,-9.114533896e-05
0.0439375,-4.595202699e-05
0.04395833333,-0.0001839637262
0.04397916667,-8.810893632e-05
0.044,-0.0002315838065
0.04402083333,-0.0002656205033
0.04404166667,-0.0004809285165
0.0440625,-0.0005870823516
0.04408333333,-0.0008131740615
0.04410416667,-0.0009362443816
0.044125,-0.001139473519
0.04414583333,-0.001217958517
0.04416666667,-0.001382784802
0.0441875,-0.001528075547
0.04420833333,-0.001639417256
0.04422916667,-0.001606808743
0.04425,-0.001724628033
0.04427083333,-0.001759543782
0.04429166667,-0.001936310902
0.0443125,-0.001896973467
0.04433333333,-0.002035662765
0.04435416667,-0.002174157184
0.044375,-0.002117441269
0.04439583333,-0.00229208474
0.04441666667,-0.002394207986
0.0444375,-0.002418352291
0.04445833333,-0.002537341556
0.04447916667,-0.002523742383
0.0445,-0.002529484453
0.04452083333,-0.002597294981
0.04454166667,-0.00253064977
0.0445625,-0.002603105269
0.04458333333,-0.002536322456
0.04460416667,-0.002546036616
0.044625,-0.002630291739
0.04464583333,-0.002734647132
0.04466666667,-0.002755621215
0.0446875,-0.002957271179
0.04470833333,-0.002964634215
0.04472916667,-0.003134282306
0.04475,-0.003149195574
0.04477083333,-0.003129832912
0.04479166667,-0.00304847816
0.0448125,-0.003010937711
0.04483333333,-0.002934673801
0.04485416667,-0.003012457862
0.044875,-0.002912108786
0.04489583333,-0.002888297429
0.04491666667,-0.002861208748
0.0449375,-0.002853715327
0.04495833333,-0.002885601716
0.04497916667,-0.002889498603
0.045,-0.002872321988
0.04502083333,-0.002927942667
0.04504166667,-0.002982680686
0.0450625,-0.00305553712
0.04508333333,-0.003012157744
0.04510416667,-0.002989738015
0.045125,-0.003010123968
0.04514583333,-0.002969227033
0.04516666667,-0.003046774305
0.0451875,-0.003041200107
0.04520833333,-0.003118785098
0.04522916667,-0.003136002226
0.04525,-0.003238098696
0.04527083333,-0.003198968712
0.04529166667,-0.003300552256
0.0453125,-0.003319512354
0.04533333333,-0.003417433705
0.04535416667,-0.00351140718
0.045375,-0.003589066211
0.04539583333,-0.00362687069
0.04541666667,-0.003724987619
0.0454375,-0.003685538191
0.04545833333,-0.003746485338
0.04547916667,-0.003611888969
0.0455,-0.003637655638
0.04552083333,-0.003682609648
0.04554166667,-0.003769719275
0.0455625,-0.003867376829
0.04558333333,-0.003922191449
0.04560416667,-0.003858124139
0.045625,-0.003973684274
0.04564583333,-0.003993991762
0.04566666667,-0.003997765947
0.0456875,-0.004020261113
0.04570833333,-0.004023532383
0.04572916667,-0.004040208645
0.04575,-0.0040315222
0.04577083333,-0.004125236999
0.04579166667,-0.004258397035
0.0458125,-0.004407728557
0.04583333333,-0.00441959966
0.04585416667,-0.004508834798
0.045875,-0.004557119217
0.04589583333,-0.004629484843
0.04591666667,-0.004601885565
0.0459375,-0.004809614737
0.04595833333,-0.00476192683
0.04597916667,-0.004846605472
0.046,-0.004874391481
0.04602083333,-0.004928875249
0.04604166667,-0.004986282904
0.0460625,-0.005061189178
0.04608333333,-0.005101461895
0.04610416667,-0.0051963632
0.046125,-0.005119165406
0.04614583333,-0.005082990043
0.04616666667,-0.004997469019
0.0461875,-0.005033800378
0.04620833333,-0.004972096998
0.04622916667,-0.004889956675
0.04625,-0.00478292536
0.04627083333,-0.00485173054
0.04629166667,-0.004781327676
0.0463125,-0.004864847753
0.04633333333,-0.004810884129
0.04635416667,-0.004797136877
0.046375,-0.004781470168
0.04639583333,-0.004765612539
0.04641666667,-0.004834325518
0.0464375,-0.004819459748
0.04645833333,-0.004806321114
0.04647916667,-0.004689061549
0.0465,-0.004707274027
0.04652083333,-0.004726022948
0.04654166667,-0.004747851752
0.0465625,-0.004728449509
0.04658333333,-0.004715652205
0.04660416667,-0.004659693222
0.046625,-0.00467819022
0.04664583333,-0.00460047368
0.04666666667,-0.004598911386
0.0466875,-0.00455848081
0.04670833333,-0.004561879206
0.04672916667,-0.004542624112
0.04675,-0.004580604844
0.04677083333,-0.004466559738
0.04679166667,-0.004485910293
0.0468125,-0.004523467738
0.04683333333,-0.004525703844
0.04685416667,-0.004575701896
0.046875,-0.004623659421
0.04689583333,-0.004533431493
0.04691666667,-0.004676238168
0.0469375,-0.00460518105
0.04695833333,-0.004656806588
0.04697916667,-0.00460665999
0.047,-0.004670624621
0.04702083333,-0.004709905945
0.04704166667,-0.004685061052
0.0470625,-0.004775794223
0.04708333333,-0.004835743457
0.04710416667,-0.004918593448
0.047125,-0.004985781386
0.04714583333,-0.005017352756
0.04716666667,-0.005014098715
0.0471875,-0.004972371273
0.04720833333,-0.004901402164
0.04722916667,-0.004873002414
0.04725,-0.004768170882
0.04727083333,-0.004758853465
0.04729166667,-0.004689314868
0.0473125,-0.004710695241
0.04733333333,-0.004633993376
0.04735416667,-0.004692834802
0.047375,-0.004750596825
0.04739583333,-0.00484544877
0.04741666667,-0.004843143746
0.0474375,-0.004914802499
0.04745833333,-0.004896672443
0.04747916667,-0.004841737449
0.0475,-0.004812977742
0.04752083333,-0.004824024625
0.04754166667,-0.004796938039
0.0475625,-0.004767077044
0.04758333333,-0.004662387073
0.04760416667,-0.004711576737
0.047625,-0.004688234534
0.04764583333,-0.004704294261
0.04766666667,-0.004718949553
0.0476875,-0.004670907743
0.04770833333,-0.004565415904
0.04772916667,-0.00457112398
0.04775,-0.004522014875
0.04777083333,-0.004587392323
0.04779166667,-0.004513176158
0.0478125,-0.004550016951
0.04783333333,-0.004490642343
0.04785416667,-0.004507128149
0.047875,-0.004525814205
0.04789583333,-0.004526840057
0.04791666667,-0.004600859713
0.0479375,-0.00462691579
0.04795833333,-0.004614030011
0.04797916667,-0.004611914977
0.048,-0.004708900582
0.04802083333,-0.004693069495
0.04804166667,-0.004774684086
0.0480625,-0.0047925869
0.04808333333,-0.004886602517
0.04810416667,-0.004861470312
0.048125,-0.004953471478
0.04814583333,-0.005009121727
0.04816666667,-0.005126535427
0.0481875,-0.005115461536
0.04820833333,-0.005162029061
0.04822916667,-0.005136358552
0.04825,-0.005152471829
0.04827083333,-0.005092483945
0.04829166667,-0.005151901394
0.0483125,-0.005097518675
0.04833333333,-0.005118723493
0.04835416667,-0.005045958795
0.048375,-0.005069366656
0.04839583333,-0.005035617389
0.04841666667,-0.005025472958
0.0484375,-0.005012054928
0.04845833333,-0.005093462765
0.04847916667,-0.004948237445
0.0485,-0.005014779046
0.04852083333,-0.005027374253
0.04854166667,-0.005010993686
0.0485625,-0.004923926666
0.04858333333,-0.004838300403
0.04860416667,-0.004787825514
0.048625,-0.004701090977
0.04864583333,-0.004593631253
0.04866666667,-0.004631669726
0.0486875,-0.004573903978
0.04870833333,-0.00456733536
0.04872916667,-0.004645183682
0.04875,-0.004629201256
0.04877083333,-0.004632022697
0.04879166667,-0.004650417715
0.0488125,-0.004634686746
0.04883333333,-0.004656611942
0.04885416667,-0.004741687793
0.048875,-0.004770423751
0.04889583333,-0.004812631756
0.04891666667,-0.004927838221
0.0489375,-0.005046411417
0.04895833333,-0.005092369393
0.04897916667,-0.005155276041
0.049,-0.005090540741
0.04902083333,-0.005138122477
0.04904166667,-0.005133972503
0.0490625,-0.0051857871
0.04908333333,-0.00518645579
0.04910416667,-0.005220264662
0.049125,-0.005255688913
0.04914583333,-0.005328096915
0.04916666667,-0.005253560375
0.0491875,-0.005390523933
0.04920833333,-0.005328265019
0.04922916667,-0.005455583334
0.04925,-0.005376779009
0.04927083333,-0.005335272755
0.04929166667,-0.005295656621
0.0493125,-0.005274478346
0.04933333333,-0.005261245184
0.04935416667,-0.005331302062
0.049375,-0.005332589149
0.04939583333,-0.005381925963
0.04941666667,-0.005446297582
0.0494375,-0.005512394477
0.04945833333,-0.005506279878
0.04947916667,-0.005572558381
0.0495,-0.005621656775
0.04952083333,-0.00574489776
0.04954166667,-0.005803989246
0.0495625,-0.005851742812
0.04958333333,-0.005842872895
0.04960416667,-0.005944683217
0.049625,-0.00607349677
0.04964583333,-0.00608455902
0.04966666667,-0.00622913707
0.0496875,-0.006148128305
0.04970833333,-0.006275044288
0.04972916667,-0.006267507095
0.04975,-0.006297152955
0.04977083333,-0.006362522952
0.04979166667,-0.006418798119
0.0498125,-0.006439329591
0.04983333333,-0.006506523583
0.04985416667,-0.00651962962
0.049875,-0.006679346319
0.04989583333,-0.006670155097
0.04991666667,-0.006722563878
0.0499375,-0.006700302474
0.04995833333,-0.006815659814
0.04997916667,-0.00678723678
0.05,-0.006871090736
0.05002083333,-0.006794296671
0.05004166667,-0.006791397464
0.0500625,-0.006731838919
0.05008333333,-0.006672362331
0.05010416667,-0.006594900973
0.050125,-0.006639164407
0.05014583333,-0.00665814057
0.05016666667,-0.006674643606
0.0501875,-0.006660514511
0.05020833333,-0.006770233158
0.05022916667,-0.006787544116
0.05025,-0.006862315349
0.05027083333,-0.007005251944
0.05029166667,-0.007006561849
0.0503125,-0.006955602206
0.05033333333,-0.00697673019
0.05035416667,-0.007058809046
0.050375,-0.007024888415
0.05039583333,-0.006959151011
0.05041666667,-0.006899876986
0.0504375,-0.006864559837
0.05045833333,-0.006724757608
0.05047916667,-0.006657445803
0.0505,-0.006482613273
0.05052083333,-0.006401511375
0.05054166667,-0.006277687382
0.0505625,-0.006220383104
0.05058333333,-0.006085492205
0.05060416667,-0.006031702738
0.050625,-0.006012979429
0.05064583333,-0.005974200554
0.05066666667,-0.005919216666
0.0506875,-0.00588052813
0.05070833333,-0.005752845667
0.05072916667,-0.005695866421
0.05075,-0.00555023551
0.05077083333,-0.00551772071
0.05079166667,-0.005375452805
0.0508125,-0.005294402596
0.05083333333,-0.005209513009
0.05085416667,-0.005174366292
0.050875,-0.005069728475
0.05089583333,-0.004993585404
0.05091666667,-0.004947207402
0.0509375,-0.004922186024
0.05095833333,-0.004906181246
0.05097916667,-0.004991043825
0.051,-0.004902988672
0.05102083333,-0.004843774252
0.05104166667,-0.004932696
0.0510625,-0.004899525549
0.05108333333,-0.004866071045
0.05110416667,-0.004838105291
0.051125,-0.004754132126
0.05114583333,-0.004759270232
0.05116666667,-0.004681737162
0.0511875,-0.004552047234
0.05120833333,-0.004617246799
0.05122916667,-0.004415268544
0.05125,-0.004397614859
0.05127083333,-0.004326406866
0.05129166667,-0.00428288104
0.0513125,-0.004163470119
0.05133333333,-0.004202605691
0.05135416667,-0.004106273409
0.051375,-0.004172448535
0.05139583333,-0.004020838533
0.05141666667,-0.003968690522
0.0514375,-0.003804846434
0.05145833333,-0.003806319321
0.05147916667,-0.00359577965
0.0515,-0.003599717747
0.05152083333,-0.003450167598
0.05154166667,-0.003449425101
0.0515625,-0.003285953775
0.05158333333,-0.003318739356
0.05160416667,-0.003188365605
0.051625,-0.00321483938
0.05164583333,-0.00320710917
0.05166666667,-0.003227825277
0.0516875,-0.00321533531
0.05170833333,-0.003216216573
0.05172916667,-0.003111159429
0.05175,-0.003157748375
0.05177083333,-0.003026454244
0.05179166667,-0.003071232466
0.0518125,-0.002943394938
0.05183333333,-0.002832245314
0.05185416667,-0.002734332113
0.051875,-0.002631067997
0.05189583333,-0.002488216851
0.05191666667,-0.002270759782
0.0519375,-0.002283010399
0.05195833333,-0.002091168426
0.05197916667,-0.002002571477
0.052,-0.00183573307
0.05202083333,-0.001898613526
0.05204166667,-0.001623697812
0.0520625,-0.001545726671
0.05208333333,-0.001405686489
0.05210416667,-0.001179806772
0.052125,-0.001084008953
0.05214583333,-0.0007511065342
0.05216666667,-0.0006140311016
0.0521875,-0.0005896356306
0.05220833333,-0.0003355875961
0.05222916667,-0.0005272857961
0.05225,-0.0001745064801
0.05227083333,-0.0004134487535
0.05229166667,-9.382972348e-05
0.0523125,-6.569098332e-06
0.05233333333,7.000248297e-05
0.05235416667,0.0001101607122
0.052375,0.0003547989763
0.05239583333,0.0004153272312
0.05241666667,0.0006889662473
0.0524375,0.0006570381229
0.05245833333,0.0008163489401
0.05247916667,0.0008108853945
0.0525,0.0009162662318
0.05252083333,0.0009703048854
0.05254166667,0.001027280116
0.0525625,0.001102556707
0.05258333333,0.001206368324
0.05260416667,0.001282301848
0.052625,0.001278149779
0.05264583333,0.0014662795
0.05266666667,0.001504573505
0.0526875,0.001659235684
0.05270833333,0.001749431132
0.05272916667,0.001872979105
0.05275,0.001919240225
0.05277083333,0.002077233745
0.05279166667,0.002247681841
0.0528125,0.002323045861
0.05283333333,0.00215842179
0.05285416667,0.002378667239
0.052875,0.002439490519
0.05289583333,0.002547085751
0.05291666667,0.00246692705
0.0529375,0.002568789292
0.05295833333,0.002484166762
0.05297916667,0.002504223259
0.053,0.002415949246
0.05302083333,0.00244990224
0.05304166667,0.002437816001
0.0530625,0.002578857122
0.05308333333,0.002492646221
0.05310416667,0.002610513708
0.053125,0.002548891585
0.05314583333,0.002694693161
0.05316666667,0.00267291395
0.0531875,0.002881601686
0.05320833333,0.002710157773
0.05322916667,0.002844294766
0.05325,0.002862336813
0.05327083333,0.002991148038
0.05329166667,0.003084065393
0.0533125,0.003080765717
0.05333333333,0.00310764811
0.05335416667,0.003142020199
0.053375,0.003251025453
0.05339583333,0.003396198386
0.05341666667,0.003460526932
0.0534375,0.00351408869
0.05345833333,0.003590346314
0.05347916667,0.003597972915
0.0535,0.003654636443
0.05352083333,0.00372545654
0.05354166667,0.003865162376
0.0535625,0.003919856623
0.05358333333,0.00403665239
0.05360416667,0.004076320212
0.053625,0.004226265475
0.05364583333,0.00420884788
0.05366666667,0.004377531819
0.0536875,0.004330802709
0.05370833333,0.00458731316
0.05372916667,0.004639454186
0.05375,0.004877549596
0.05377083333,0.004889792763
0.05379166667,0.005062101875
0.0538125,0.005082910415
0.05383333333,0.005184283946
0.05385416667,0.005107977428
0.053875,0.005290942732
0.05389583333,0.005198871717
0.05391666667,0.005374919157
0.0539375,0.005286835134
0.05395833333,0.005444533657
0.05397916667,0.005443587899
0.054,0.005491297226
0.05402083333,0.00563905295
0.05404166667,0.005682996009
0.0540625,0.00573909888
0.05408333333,0.005867171101
0.05410416667,0.005945820361
0.054125,0.005996335298
0.05414583333,0.00602647569
0.05416666667,0.006080747582
0.0541875,0.006153615192
0.05420833333,0.006195708178
0.05422916667,0.006204160396
0.05425,0.006242124364
0.05427083333,0.006278464571
0.05429166667,0.006301227026
0.0543125,0.006371316034
0.05433333333,0.006454160903
0.05435416667,0.006504618563
0.054375,0.006574705243
0.05439583333,0.006578103174
0.05441666667,0.006593324244
0.0544375,0.006601887755
0.05445833333,0.006617052946
0.05447916667,0.006743691396
0.0545,0.006682196166
0.05452083333,0.006818020716
0.05454166667,0.006756938994
0.0545625,0.006869453471
0.05458333333,0.006954358425
0.05460416667,0.006972502451
0.054625,0.006985420361
0.05464583333,0.007112560794
0.05466666667,0.007094324566
0.0546875,0.007161616348
0.05470833333,0.007206370588
0.05472916667,0.007223933004
0.05475,0.007279488724
0.05477083333,0.007290398236
0.05479166667,0.007309389301
0.0548125,0.007336249109
0.05483333333,0.007339568809
0.05485416667,0.007400393952
0.054875,0.007415025495
0.05489583333,0.007538570091
0.05491666667,0.007625035942
0.0549375,0.007747144438
0.05495833333,0.007823307998
0.05497916667,0.007828352042
0.055,0.007837135345
0.05502083333,0.007748525124
0.05504166667,0.007682531606
0.0550625,0.007649895735
0.05508333333,0.007637162227
0.05510416667,0.00761316251
0.055125,0.007619836368
0.05514583333,0.007539428305
0.05516666667,0.007519210689
0.0551875,0.007387986407
0.05520833333,0.007417369634
0.05522916667,0.007318392396
0.05525,0.007331472822
0.05527083333,0.007230170071
0.05529166667,0.007250723895
0.0553125,0.007174385712
0.05533333333,0.00720118871
0.05535416667,0.007122470066
0.055375,0.007148137316
0.05539583333,0.007134908345
0.05541666667,0.007162112743
0.0554375,0.007121882401
0.05545833333,0.007164540235
0.05547916667,0.007171071135
0.0555,0.007219239604
0.05552083333,0.007210468408
0.05554166667,0.007259882987
0.0555625,0.007304485422
0.05558333333,0.007360741962
0.05560416667,0.007378838025
0.055625,0.007277227007
0.05564583333,0.007277464028
0.05566666667,0.007240148261
0.0556875,0.007204618305
0.05570833333,0.00718386285
0.05572916667,0.007158937864
0.05575,0.007177012973
0.05577083333,0.007228495553
0.05579166667,0.007196645252
0.0558125,0.007298661862
0.05583333333,0.007348999847
0.05585416667,0.007361893542
0.055875,0.007313991431
0.05589583333,0.007264229469
0.05591666667,0.007218497805
0.0559375,0.007212028373
0.05595833333,0.007143081632
0.05597916667,0.007224714383
0.056,0.0072560478
0.05602083333,0.007360121235
0.05604166667,0.007383169606
0.0560625,0.007508629002
0.05608333333,0.007564539555
0.05610416667,0.007696289569
0.056125,0.007761643268
0.05614583333,0.007896439172
0.05616666667,0.007976049557
0.0561875,0.008033593185
0.05620833333,0.008012383245
0.05622916667,0.008074278012
0.05625,0.008107025176
0.05627083333,0.008152101189
0.05629166667,0.008154877461
0.0563125,0.00818070583
0.05633333333,0.008170492947
0.05635416667,0.008205877617
0.056375,0.008229619823
0.05639583333,0.008219003677
0.05641666667,0.008275877684
0.0564375,0.008278549649
0.05645833333,0.008302873932
0.05647916667,0.008290812373
0.0565,0.008283625357
0.05652083333,0.008323004469
0.05654166667,0.008373151533
0.0565625,0.00838743709
0.05658333333,0.008428320289
0.05660416667,0.008464048617
0.056625,0.008558901958
0.05664583333,0.008607058786
0.05666666667,0.008789621294
0.0566875,0.008849266917
0.05670833333,0.009017081
0.05672916667,0.009117699228
0.05675,0.009322421625
0.05677083333,0.009461840615
0.05679166667,0.009626020677
0.0568125,0.009708064608
0.05683333333,0.009851955809
0.05685416667,0.009951144457
0.056875,0.01003774162
0.05689583333,0.01013792865
0.05691666667,0.01022595353
0.0569375,0.0102513805
0.05695833333,0.01034621801
0.05697916667,0.01036574692
0.057,0.01048326213
0.05702083333,0.01053814963
0.05704166667,0.01057267468
0.0570625,0.0105618611
0.05708333333,0.01053367741
0.05710416667,0.01058149245
0.057125,0.01057464164
0.05714583333,0.01065061241
0.05716666667,0.01068231277
0.0571875,0.01066602021
0.05720833333,0.01073517092
0.05722916667,0.01075281203
0.05725,0.01071519591
0.05727083333,0.01076802984
0.05729166667,0.01081007347
0.0573125,0.01090388279
0.05733333333,0.01097998675
0.05735416667,0.0110428147
0.057375,0.01103533618
0.05739583333,0.0111232195
0.05741666667,0.01106162649
0.0574375,0.01115718391
0.05745833333,0.01106172241
0.05747916667,0.01111827977
0.0575,0.01114938129
0.05752083333,0.01111770514
0.05754166667,0.01110140607
0.0575625,0.0110752685
0.05758333333,0.01102260686
0.05760416667,0.011023717
0.057625,0.01099346951
0.05764583333,0.01097457297
0.05766666667,0.01096699014
0.0576875,0.01093658805
0.05770833333,0.01084357128
0.05772916667,0.01084530819
0.05775,0.01069107838
0.05777083333,0.01073615905
0.05779166667,0.0106912246
0.0578125,0.01062660012
0.05783333333,0.01064864174
0.05785416667,0.01063198131
0.057875,0.01065416075
0.05789583333,0.01062360685
0.05791666667,0.01066309027
0.0579375,0.01064399164
0.05795833333,0.01063402276
0.05797916667,0.01065276098
0.058,0.01066211145
0.05802083333,0.01064210199
0.05804166667,0.01067808922
0.0580625,0.01061849575
0.05808333333,0.01072484627
0.05810416667,0.01061873604
0.058125,0.01072682347
0.05814583333,0.01060585584
0.05816666667,0.01058485825
0.0581875,0.01044368185
0.05820833333,0.01043991558
0.05822916667,0.010291541
0.05825,0.01022547111
0.05827083333,0.01005917601
0.05829166667,0.009929841384
0.0583125,0.009772950783
0.05833333333,0.009746786207
0.05835416667,0.009591868147
0.058375,0.009574872442
0.05839583333,0.009358319454
0.05841666667,0.009350948036
0.0584375,0.009194387123
0.05845833333,0.009089655243
0.05847916667,0.008947385475
0.0585,0.008833852597
0.05852083333,0.00872509554
0.05854166667,0.008625492454
0.0585625,0.008489424363
0.05858333333,0.008404829539
0.05860416667,0.008267707191
0.058625,0.008173992857
0.05864583333,0.008064958267
0.05866666667,0.007956845686
0.0586875,0.007869088091
0.05870833333,0.00770579325
0.05872916667,0.007598992903
0.05875,0.007441138383
0.05877083333,0.007310198154
0.05879166667,0.007162712049
0.0588125,0.007157344371
0.05883333333,0.006993905175
0.05885416667,0.006973860785
0.058875,0.006779097021
0.05889583333,0.006704416592
0.05891666667,0.006616775412
0.0589375,0.006518489216
0.05895833333,0.006419261452
0.05897916667,0.006354601588
0.059,0.006254607812
0.05902083333,0.006197678857
0.05904166667,0.005986283533
0.0590625,0.00596627919
0.05908333333,0.005816165358
0.05910416667,0.005821389612
0.059125,0.005680549424
0.05914583333,0.005675502587
0.05916666667,0.005502756685
0.0591875,0.005429844838
0.05920833333,0.005297278985
0.05922916667,0.005334370304
0.05925,0.005249199457
0.05927083333,0.005308316089
0.05929166667,0.005274108145
0.0593125,0.005215832964
0.05933333333,0.005085026845
0.05935416667,0.005065227859
0.059375,0.004985709209
0.05939583333,0.004926409107
0.05941666667,0.004875063896
0.0594375,0.004865492228
0.05945833333,0.004917645361
0.05947916667,0.004861020483
0.0595,0.004869905766
0.05952083333,0.004814041778
0.05954166667,0.004894930404
0.0595625,0.004842713475
0.05958333333,0.004897443112
0.05960416667,0.004808423575
0.059625,0.004857227206
0.05964583333,0.004786944482
0.05966666667,0.00492556626
0.0596875,0.004920335021
0.05970833333,0.004967936315
0.05972916667,0.004964244086
0.05975,0.004963665735
0.05977083333,0.004953654483
0.05979166667,0.005047237501
0.0598125,0.004980762023
0.05983333333,0.005085208453
0.05985416667,0.005004761275
0.059875,0.005100953393
0.05989583333,0.005008420907
0.05991666667,0.005008734297
0.0599375,0.004993762821
0.05995833333,0.00503079826
0.05997916667,0.005061519798
0.06,0.005164276343
0.06002083333,0.005251192953
0.06004166667,0.005291841459
0.0600625,0.005304675084
0.06008333333,0.005346909165
0.06010416667,0.0053495178
0.060125,0.005384596996
0.06014583333,0.005508672446
0.06016666667,0.005569000728
0.0601875,0.005689388607
0.06020833333,0.005691106431
0.06022916667,0.005774067249
0.06025,0.00577893341
0.06027083333,0.005819726735
0.06029166667,0.005804741289
0.0603125,0.005917479284
0.06033333333,0.005919721909
0.06035416667,0.005994657986
0.060375,0.00596134318
0.06039583333,0.0059971991
0.06041666667,0.005897681694
0.0604375,0.005897834897
0.06045833333,0.005771858152
0.06047916667,0.005875447299
0.0605,0.005773494951
0.06052083333,0.005823777057
0.06054166667,0.005700353533
0.0605625,0.005723059643
0.06058333333,0.005596546456
0.06060416667,0.0056037209
0.060625,0.005541472696
0.06064583333,0.00556531176
0.06066666667,0.005548766814
0.0606875,0.005555059295
0.06070833333,0.005472577177
0.06072916667,0.005484097637
0.06075,0.005474264733
0.06077083333,0.005511613097
0.06079166667,0.005463866983
0.0608125,0.005454336293
0.06083333333,0.005443434231
0.06085416667,0.005413187668
0.060875,0.005480533931
0.06089583333,0.005503265653
0.06091666667,0.005526124034
0.0609375,0.005514869001
0.06095833333,0.00552519178
0.06097916667,0.005423120689
0.061,0.005433238111
0.06102083333,0.005380006507
0.06104166667,0.005375515204
0.0610625,0.005309925415
0.06108333333,0.005289362743
0.06110416667,0.005214601289
0.061125,0.005173343234
0.06114583333,0.005015112925
0.06116666667,0.00496315863
0.0611875,0.004791422281
0.06120833333,0.004764727317
0.06122916667,0.004698246717
0.06125,0.004617562518
0.06127083333,0.004502732307
0.06129166667,0.004613149446
0.0613125,0.004542351235
0.06133333333,0.004570143297
0.06135416667,0.00450497726
0.061375,0.004551366903
0.06139583333,0.004463893827
0.06141666667,0.004438882694
0.0614375,0.004380706232
0.06145833333,0.004456489347
0.06147916667,0.004397183191
0.0615,0.004409377929
0.06152083333,0.004393698648
0.06154166667,0.004337530583
0.0615625,0.004313150421
0.06158333333,0.0042125904
0.06160416667,0.00424219761
0.061625,0.004169169813
0.06164583333,0.004166077822
0.06166666667,0.004060919862
0.0616875,0.004067306407
0.06170833333,0.003965711687
0.06172916667,0.003983641043
0.06175,0.003868633881
0.06177083333,0.003911083099
0.06179166667,0.003787833266
0.0618125,0.003801317187
0.06183333333,0.003775759134
0.06185416667,0.003847383894
0.061875,0.003740946297
0.06189583333,0.003851045156
0.06191666667,0.003691598307
0.0619375,0.003828221234
0.06195833333,0.00368931354
0.06197916667,0.003805484157
0.062,0.003702986985
0.06202083333,0.00368227181
0.06204166667,0.003638163209
0.0620625,0.003620758886
0.06208333333,0.003558086464
0.06210416667,0.003533826442
0.062125,0.003467736999
0.06214583333,0.003456417238
0.06216666667,0.003370431019
0.0621875,0.003360512201
0.06220833333,0.003345364705
0.06222916667,0.003323943587
0.06225,0.003382933093
0.06227083333,0.003294001333
0.06229166667,0.003338500625
0.0623125,0.003189611016
0.06233333333,0.003196837381
0.06235416667,0.003105965443
0.062375,0.003133768216
0.06239583333,0.00303763221
0.06241666667,0.003091868013
0.0624375,0.00298166438
0.06245833333,0.002997957869
0.06247916667,0.002893181285
0.0625,0.00295638456
0.06252083333,0.002760485047
0.06254166667,0.002865448128
0.0625625,0.002762908116
0.06258333333,0.002838937333
0.06260416667,0.002744913334
0.062625,0.002811406273
0.06264583333,0.002699988894
0.06266666667,0.002773870481
0.0626875,0.002716287971
0.06270833333,0.00279876031
0.06272916667,0.002742508892
0.06275,0.002836723346
0.06277083333,0.002835281426
0.06279166667,0.002823475515
0.0628125,0.002752346219
0.06283333333,0.002721219324
0.06285416667,0.002675715135
0.062875,0.002626843518
0.06289583333,0.00259320694
0.06291666667,0.002568536205
0.0629375,0.002509874525
0.06295833333,0.002464903751
0.06297916667,0.002383530373
0.063,0.002295365324
0.06302083333,0.002296547638
0.06304166667,0.002183393342
0.0630625,0.002345185028
0.06308333333,0.002204619814
0.06310416667,0.002330257557
0.063125,0.002250161255
0.06314583333,0.002371016191
0.06316666667,0.002299707383
0.0631875,0.002377376892
0.06320833333,0.002322665649
0.06322916667,0.002418346237
0.06325,0.002352745738
0.06327083333,0.002455997281
0.06329166667,0.002358339261
0.0633125,0.002450691303
0.06333333333,0.002396128606
0.06335416667,0.002453189343
0.063375,0.002310486278
0.06339583333,0.002326456597
0.06341666667,0.002190172672
0.0634375,0.002275118139
0.06345833333,0.002104558283
0.06347916667,0.002106630011
0.0635,0.002008715644
0.06352083333,0.002024318324
0.06354166667,0.002015038393
0.0635625,0.002046126407
0.06358333333,0.002010728931
0.06360416667,0.002009322634
0.063625,0.002043354092
0.06364583333,0.002078179969
0.06366666667,0.002163998783
0.0636875,0.002205186291
0.06370833333,0.002234178362
0.06372916667,0.002246019198
0.06375,0.002269816352
0.06377083333,0.002193639055
0.06379166667,0.002212126506
0.0638125,0.002080977196
0.06383333333,0.002111640992
0.06385416667,0.002034240402
0.063875,0.002111614449
0.06389583333,0.00206522923
0.06391666667,0.002114807954
0.0639375,0.002044580877
0.06395833333,0.002096924465
0.06397916667,0.001971207326
0.064,0.002022735775
0.06402083333,0.001905356417
0.06404166667,0.001964952564
0.0640625,0.00187475048
0.06408333333,0.001864960417
0.06410416667,0.001804865897
0.064125,0.001740224194
0.06414583333,0.001636106521
0.06416666667,0.001565425657
0.0641875,0.001447109855
0.06420833333,0.001408260548
0.06422916667,0.001278621261
0.06425,0.001279812888
0.06427083333,0.00123359682
0.06429166667,0.001223686966
0.0643125,0.001172384247
0.06433333333,0.001174599398
0.06435416667,0.001123027876
0.064375,0.001060998999
0.06439583333,0.00103795249
0.06441666667,0.0009797479725
0.0644375,0.0009489881922
0.06445833333,0.0009461946902
0.06447916667,0.0009085555794
0.0645,0.0008573477389
0.06452083333,0.0008283806383
0.06454166667,0.0008131192881
0.0645625,0.0008450127789
0.06458333333,0.0008397041238
0.06460416667,0.0008262650808
0.064625,0.0007631016197
0.06464583333,0.0007540325169
0.06466666667,0.0006845102762
0.0646875,0.0007469609263
0.06470833333,0.0006671400042
0.06472916667,0.0006956054131
0.06475,0.0006658497732
0.06477083333,0.0006699032965
0.06479166667,0.0006364199216
0.0648125,0.0006341533735
0.06483333333,0.0005326869432
0.06485416667,0.0005104785087
0.064875,0.000464266981
0.06489583333,0.0004558175278
0.06491666667,0.000431807508
0.0649375,0.0004766894272
0.06495833333,0.0004987519351
0.06497916667,0.0005461202818
0.065,0.0005027836887
0.06502083333,0.000543778704
0.06504166667,0.0005479396204
0.0650625,0.0005990369245
0.06508333333,0.0006741581601
0.06510416667,0.0007699814741
0.065125,0.0008857795619
0.06514583333,0.00096887158
0.06516666667,0.001046585385
0.0651875,0.001135614351
0.06520833333,0.001200772938
0.06522916667,0.001259432524
0.06525,0.001244042302
0.06527083333,0.001313930261
0.06529166667,0.001335215289
0.0653125,0.00138664688
0.06533333333,0.001433228375
0.06535416667,0.001422621775
0.065375,0.001488838345
0.06539583333,0.001480475068
0.06541666667,0.001580885611
0.0654375,0.001506569912
0.06545833333,0.00151340093
0.06547916667,0.001434417092
0.0655,0.001448446768
0.06552083333,0.001403660164
0.06554166667,0.001360689173
0.0655625,0.001366460929
0.06558333333,0.001321550342
0.06560416667,0.00126367528
0.065625,0.001269323984
0.06564583333,0.001177949947
0.06566666667,0.001225853339
0.0656875,0.001124980045
0.06570833333,0.001159038278
0.06572916667,0.001065621036
0.06575,0.001063163159
0.06577083333,0.0009994660504
0.06579166667,0.0009823120199
0.0658125,0.000965799205
0.06583333333,0.0009292415925
0.06585416667,0.0009144206415
0.065875,0.0008964557783
0.06589583333,0.0008876013453
0.06591666667,0.0008601382142
0.0659375,0.0007939054631
0.06595833333,0.0007012909045
0.06597916667,0.0007176676299
0.066,0.0006269297446
0.06602083333,0.000583749963
0.06604166667,0.0005039296811
0.0660625,0.0004046920221
0.06608333333,0.0003607153776
0.06610416667,0.0002991450019
0.066125,0.0002102251165
0.06614583333,0.0001324213226
0.06616666667,-5.235138815e-06
0.0661875,-0.0001270124339
0.06620833333,-0.0003337489325
0.06622916667,-0.000433836336
0.06625,-0.0005861923564
0.06627083333,-0.0007026959793
0.06629166667,-0.0008454127237
0.0663125,-0.0009263592074
0.06633333333,-0.001055598026
0.06635416667,-0.001164960093
0.066375,-0.001351692481
0.06639583333,-0.001423320966
0.06641666667,-0.00157297845
0.0664375,-0.00165746198
0.06645833333,-0.001745246933
0.06647916667,-0.001849852386
0.0665,-0.001883994206
0.06652083333,-0.001994550228
0.06654166667,-0.002119892975
0.0665625,-0.002189064864
0.06658333333,-0.002306302078
0.06660416667,-0.002381219296
0.066625,-0.002524714917
0.06664583333,-0.002623772016
0.06666666667,-0.002792035695
0.0666875,-0.002896345919
0.06670833333,-0.003052666085
0.06672916667,-0.003201686079
0.06675,-0.003344974713
0.06677083333,-0.003495607292
0.06679166667,-0.00369273196
0.0668125,-0.003862372832
0.06683333333,-0.004049210344
0.06685416667,-0.004171125125
0.066875,-0.004339076113
0.06689583333,-0.004461510573
0.06691666667,-0.004559065215
0.0669375,-0.004625491798
0.06695833333,-0.00464841025
0.06697916667,-0.00473040808
0.067,-0.004708127584
0.06702083333,-0.004791896325
0.06704166667,-0.004793693312
0.0670625,-0.004899440333
0.06708333333,-0.004896923434
0.06710416667,-0.004912737291
0.067125,-0.004893427249
0.06714583333,-0.004970916081
0.06716666667,-0.004898671061
0.0671875,-0.004941424355
0.06720833333,-0.004861810245
0.06722916667,-0.004885082599
0.06725,-0.004860984627
0.06727083333,-0.004891424906
0.06729166667,-0.004897324368
0.0673125,-0.004926944152
0.06733333333,-0.004900748376
0.06735416667,-0.004978008103
0.067375,-0.005025729537
0.06739583333,-0.005100629292
0.06741666667,-0.00512683671
0.0674375,-0.005113469437
0.06745833333,-0.005158062559
0.06747916667,-0.005185211543
0.0675,-0.005230232608
0.06752083333,-0.005266988184
0.06754166667,-0.005288153887
0.0675625,-0.005304996856
0.06758333333,-0.005311154295
0.06760416667,-0.005278777331
0.067625,-0.005246523302
0.06764583333,-0.005296409596
0.06766666667,-0.005294380244
0.0676875,-0.005291442852
0.06770833333,-0.005290187895
0.06772916667,-0.005200775806
0.06775,-0.005216085352
0.06777083333,-0.005141136702
0.06779166667,-0.005156193394
0.0678125,-0.005109772086
0.06783333333,-0.005131412763
0.06785416667,-0.005150217563
0.067875,-0.005196992308
0.06789583333,-0.005224427208
0.06791666667,-0.005248752888
0.0679375,-0.0052553555
0.06795833333,-0.005368454382
0.06797916667,-0.005416275002
0.068,-0.005499102175
0.06802083333,-0.005566612817
0.06804166667,-0.005658479873
0.0680625,-0.005658661481
0.06808333333,-0.005757304374
0.06810416667,-0.005780355074
0.068125,-0.005905863829
0.06814583333,-0.005901126657
0.06816666667,-0.005994883832
0.0681875,-0.005971626379
0.06820833333,-0.006012528669
0.06822916667,-0.005996837746
0.06825,-0.006000326946
0.06827083333,-0.005971289705
0.06829166667,-0.005973834544
0.0683125,-0.006001261994
0.06833333333,-0.00598872453
0.06835416667,-0.006035672966
0.068375,-0.006016809493
0.06839583333,-0.006045211107
0.06841666667,-0.006047911011
0.0684375,-0.006083869375
0.06845833333,-0.006087571848
0.06847916667,-0.00617302442
0.0685,-0.006214180961
0.06852083333,-0.006298946217
0.06854166667,-0.006303240545
0.0685625,-0.006461923011
0.06858333333,-0.0064484342
0.06860416667,-0.006594009697
0.068625,-0.006593896076
0.06864583333,-0.006715788972
0.06866666667,-0.006717246026
0.0686875,-0.006827535108
0.06870833333,-0.006774934009
0.06872916667,-0.006891510915
0.06875,-0.006867432036
0.06877083333,-0.006934299134
0.06879166667,-0.006926781964
0.0688125,-0.006964623928
0.06883333333,-0.006975763477
0.06885416667,-0.006970175076
0.068875,-0.00702031143
0.06889583333,-0.007110779174
0.06891666667,-0.007198374253
0.0689375,-0.007288375404
0.06895833333,-0.007316749543
0.06897916667,-0.007354542147
0.069,-0.007385469042
0.06902083333,-0.007411402185
0.06904166667,-0.007472506724
0.0690625,-0.007541135885
0.06908333333,-0.007606356405
0.06910416667,-0.007665087469
0.069125,-0.007694875356
0.06914583333,-0.007719844114
0.06916666667,-0.00779274758
0.0691875,-0.007790810894
0.06920833333,-0.00789886713
0.06922916667,-0.007969593629
0.06925,-0.008046302944
0.06927083333,-0.00810360536
0.06929166667,-0.008178849705
0.0693125,-0.008172692731
0.06933333333,-0.008277411573
0.06935416667,-0.008264665492
0.069375,-0.008368714713
0.06939583333,-0.008371120319
0.06941666667,-0.008554102853
0.0694375,-0.008575286716
0.06945833333,-0.008691404946
0.06947916667,-0.008684314787
0.0695,-0.00875107944
0.06952083333,-0.008755196817
0.06954166667,-0.00881944038
0.0695625,-0.008830427192
0.06958333333,-0.008889168501
0.06960416667,-0.008863073774
0.069625,-0.008981648833
0.06964583333,-0.009028275497
0.06966666667,-0.009047139436
0.0696875,-0.009122528136
0.06970833333,-0.009186466224
0.06972916667,-0.009193656035
0.06975,-0.009241461754
0.06977083333,-0.009272327647
0.06979166667,-0.009334222414
0.0698125,-0.009359145537
0.06983333333,-0.009399968199
0.06985416667,-0.009431364946
0.069875,-0.009390657768
0.06989583333,-0.009417107329
0.06991666667,-0.009359280579
0.0699375,-0.00937561132
0.06995833333,-0.009363481775
0.06997916667,-0.009439102374
0.07,-0.009390830062
0.07002083333,-0.009408838116
0.07004166667,-0.009345927276
0.0700625,-0.009392979555
0.07008333333,-0.009353107773
0.07010416667,-0.009399302304
0.070125,-0.009376481175
0.07014583333,-0.0094392756
0.07016666667,-0.009339162149
0.0701875,-0.009360550903
0.07020833333,-0.009292592295
0.07022916667,-0.009306486696
0.07025,-0.009249237366
0.07027083333,-0.009273593314
0.07029166667,-0.009201160632
0.0703125,-0.009236173704
0.07033333333,-0.009175167419
0.07035416667,-0.00920237042
0.070375,-0.009167710319
0.07039583333,-0.009167169221
0.07041666667,-0.009180629626
0.0704375,-0.009160884656
0.07045833333,-0.009133729152
0.07047916667,-0.009085827507
0.0705,-0.009021905251
0.07052083333,-0.008919238113
0.07054166667,-0.008864101954
0.0705625,-0.008795473725
0.07058333333,-0.008835536428
0.07060416667,-0.00881272275
0.070625,-0.008821234107
0.07064583333,-0.00873969961
0.07066666667,-0.008756890893
0.0706875,-0.008619413711
0.07070833333,-0.008652189746
0.07072916667,-0.008622913621
0.07075,-0.008620937355
0.07077083333,-0.00854575634
0.07079166667,-0.008543024771
0.0708125,-0.008481706493
0.07083333333,-0.008526487276
0.07085416667,-0.008463234641
0.070875,-0.008455191739
0.07089583333,-0.008383001201
0.07091666667,-0.008396761492
0.0709375,-0.008370162919
0.07095833333,-0.008408213034
0.07097916667,-0.008431490511
0.071,-0.008449131623
0.07102083333,-0.008418756537
0.07104166667,-0.008391244337
0.0710625,-0.008337823674
0.07108333333,-0.008353072219
0.07110416667,-0.008306857198
0.071125,-0.008317489177
0.07114583333,-0.008248537779
0.07116666667,-0.008245035075
0.0711875,-0.008176338859
0.07120833333,-0.008139423095
0.07122916667,-0.008084462956
0.07125,-0.007988406345
0.07127083333,-0.007905406877
0.07129166667,-0.00771722896
0.0713125,-0.007620190736
0.07133333333,-0.007486344315
0.07135416667,-0.007442599162
0.071375,-0.007322133519
0.07139583333,-0.007219989318
0.07141666667,-0.007122759707
0.0714375,-0.007096500136
0.07145833333,-0.006982654333
0.07147916667,-0.00699177105
0.0715,-0.006892983802
0.07152083333,-0.006894593127
0.07154166667,-0.006764501799
0.0715625,-0.006743527949
0.07158333333,-0.006597927772
0.07160416667,-0.006584577728
0.071625,-0.006446579006
0.07164583333,-0.006433446426
0.07166666667,-0.00629585376
0.0716875,-0.006258124486
0.07170833333,-0.006135593634
0.07172916667,-0.006107749417
0.07175,-0.0060012592
0.07177083333,-0.005985334981
0.07179166667,-0.005915902555
0.0718125,-0.005876624025
0.07183333333,-0.005782833323
0.07185416667,-0.005710878409
0.071875,-0.005567793269
0.07189583333,-0.005482236389
0.07191666667,-0.005374277942
0.0719375,-0.005300526507
0.07195833333,-0.00514821941
0.07197916667,-0.005083753727
0.072,-0.004999082536
0.07202083333,-0.004823674448
0.07204166667,-0.004767707549
0.0720625,-0.004581250716
0.07208333333,-0.004529238679
0.07210416667,-0.004374776967
0.072125,-0.004284498282
0.07214583333,-0.004132777918
0.07216666667,-0.004038505722
0.0721875,-0.003838081611
0.07220833333,-0.003784077708
0.07222916667,-0.003603034653
0.07225,-0.003573933383
0.07227083333,-0.003364634002
0.07229166667,-0.003330058884
0.0723125,-0.00316424435
0.07233333333,-0.003164369846
0.07235416667,-0.002989176894
0.072375,-0.002985577332
0.07239583333,-0.00281030708
0.07241666667,-0.002778675407
0.0724375,-0.002657806966
0.07245833333,-0.002618388506
0.07247916667,-0.00251721032
0.0725,-0.002497365233
0.07252083333,-0.002390151145
0.07254166667,-0.002373974072
0.0725625,-0.002292096382
0.07258333333,-0.00225728238
0.07260416667,-0.002185151912
0.072625,-0.002083808649
0.07264583333,-0.002001220593
0.07266666667,-0.001852942514
0.0726875,-0.001791612944
0.07270833333,-0.001642109477
0.07272916667,-0.001561052632
0.07275,-0.001445464208
0.07277083333,-0.001321747433
0.07279166667,-0.001142735011
0.0728125,-0.001145719201
0.07283333333,-0.0009126862278
0.07285416667,-0.0009155496373
0.072875,-0.0006919636508
0.07289583333,-0.0005667753285
0.07291666667,-0.000460019306
0.0729375,-0.0004416520533
0.07295833333,-0.000319356448
0.07297916667,-0.0003389721387
0.073,-8.86020789e-05
0.07302083333,-0.0001143415575
0.07304166667,7.110909792e-05
0.0730625,3.523996565e-05
0.07308333333,0.00014770485
0.07310416667,0.000126454368
0.073125,0.0002616151469
0.07314583333,0.0002685136278
0.07316666667,0.0003347160527
0.0731875,0.0003207261907
0.07320833333,0.0003813770018
0.07322916667,0.0004131121386
0.07325,0.0005160035216
0.07327083333,0.0004995688796
0.07329166667,0.0005528606125
0.0733125,0.0005883453414
0.07333333333,0.0006540403701
0.07335416667,0.0007159753586
0.073375,0.000736703747
0.07339583333,0.0007996500935
0.07341666667,0.0008805971011
0.0734375,0.0009780367836
0.07345833333,0.001032631146
0.07347916667,0.00116685871
0.0735,0.001202216605
0.07352083333,0.001312129782
0.07354166667,0.00133931567
0.0735625,0.001478722319
0.07358333333,0.001502593281
0.07360416667,0.001624332159
0.073625,0.001615700428
0.07364583333,0.001758447383
0.07366666667,0.001718782471
0.0736875,0.001774490811
0.07370833333,0.001769287745
0.07372916667,0.001834265538
0.07375,0.001811164198
0.07377083333,0.001896832138
0.07379166667,0.001875162474
0.0738125,0.001963534625
0.07383333333,0.001938511734
0.07385416667,0.002014506608
0.073875,0.002050861483
0.07389583333,0.002216494875
0.07391666667,0.00222659437
0.0739375,0.002339927247
0.07395833333,0.002371065086
0.07397916667,0.00253873365
0.074,0.002614652039
0.07402083333,0.002733217552
0.07404166667,0.00285882107
0.0740625,0.002989237662
0.07408333333,0.003072108608
0.07410416667,0.003202586435
0.074125,0.003269381821
0.07414583333,0.003408557968
0.07416666667,0.003462105524
0.0741875,0.003566176863
0.07420833333,0.003676096443
0.07422916667,0.003743438981
0.07425,0.003851139452
0.07427083333,0.003945448902
0.07429166667,0.004031794146
0.0743125,0.004065774847
0.07433333333,0.004185734782
0.07435416667,0.00421700906
0.074375,0.004330771975
0.07439583333,0.004376941826
0.07441666667,0.00447181752
0.0744375,0.004536264576
0.07445833333,0.004548014142
0.07447916667,0.004561578389
0.0745,0.004593069199
0.07452083333,0.004637930077
0.07454166667,0.004717809148
0.0745625,0.004764073063
0.07458333333,0.00487211952
0.07460416667,0.004899196327
0.074625,0.004990731832
0.07464583333,0.005010043271
0.07466666667,0.005091731902
0.0746875,0.005100113805
0.07470833333,0.005181306507
0.07472916667,0.00517317513
0.07475,0.005268687382
0.07477083333,0.005277428776
0.07479166667,0.005407365505
0.0748125,0.005442559253
0.07483333333,0.005480783526
0.07485416667,0.005539557897
0.074875,0.005560506135
0.07489583333,0.005631916225
0.07491666667,0.005694039166
0.0749375,0.005763538647
0.07495833333,0.005779629108
0.07497916667,0.005759364925
0.075,0.005720632616
0.07502083333,0.005697162822
0.07504166667,0.00564537989
0.0750625,0.005634488538
0.07508333333,0.005579117686
0.07510416667,0.005589051172
0.075125,0.00548863085
0.07514583333,0.00545216864
0.07516666667,0.005376041867
0.0751875,0.005367081612
0.07520833333,0.005322430748
0.07522916667,0.00535515463
0.07525,0.005342422985
0.07527083333,0.005365278572
0.07529166667,0.005297517404
0.0753125,0.005318369716
0.07533333333,0.005299594253
0.07535416667,0.005323533434
0.075375,0.005378289148
0.07539583333,0.005420583766
0.07541666667,0.005454140715
0.0754375,0.005457651336
0.07545833333,0.005472091027
0.07547916667,0.005512370262
0.0755,0.005530341063
0.07552083333,0.005603504833
0.07554166667,0.005571214017
0.0755625,0.005651278421
0.07558333333,0.005639391486
0.07560416667,0.005729821976
0.075625,0.005737053696
0.07564583333,0.00576827256
0.07566666667,0.005784177687
0.0756875,0.005812178366
0.07570833333,0.005839537363
0.07572916667,0.005798885133
0.07575,0.005856819917
0.07577083333,0.005811889656
0.07579166667,0.005829193629
0.0758125,0.005796476267
0.07583333333,0.005833965726
0.07585416667,0.005802666303
0.075875,0.005864928011
0.07589583333,0.005839704536
0.07591666667,0.005918367766
0.0759375,0.005889583379
0.07595833333,0.005946180318
0.07597916667,0.005986506119
0.076,0.006065161433
0.07602083333,0.006105439737
0.07604166667,0.006120519713
0.0760625,0.006154010072
0.07608333333,0.006218318362
0.07610416667,0.00628242828
0.076125,0.006339454092
0.07614583333,0.006405296735
0.07616666667,0.006450147368
0.0761875,0.006527878344
0.07620833333,0.006553090177
0.07622916667,0.006612754893
0.07625,0.006675738841
0.07627083333,0.00677411817
0.07629166667,0.006839501206
0.0763125,0.006871629041
0.07633333333,0.006896635983
0.07635416667,0.006989589892
0.076375,0.007027235348
0.07639583333,0.007043351419
0.07641666667,0.007052375935
0.0764375,0.007066121325
0.07645833333,0.007057634648
0.07647916667,0.007059541531
0.0765,0.007082112599
0.07652083333,0.007120312657
0.07654166667,0.007148716599
0.0765625,0.007178517524
0.07658333333,0.007178335916
0.07660416667,0.00725716725
0.076625,0.007226704154
0.07664583333,0.007311917376
0.07666666667,0.007274662144
0.0766875,0.007355353795
0.07670833333,0.007348490413
0.07672916667,0.00743484823
0.07675,0.007445165422
0.07677083333,0.007514713332
0.07679166667,0.007520155981
0.0768125,0.007572191767
0.07683333333,0.007619699463
0.07685416667,0.007677319925
0.076875,0.007714003325
0.07689583333,0.007764081471
0.07691666667,0.007803606801
0.0769375,0.007838930003
0.07695833333,0.007872855291
0.07697916667,0.007878324948
0.077,0.007913756184
0.07702083333,0.007909047417
0.07704166667,0.007958474569
0.0770625,0.007944733836
0.07708333333,0.007964385673
0.07710416667,0.007958047092
0.077125,0.007992728613
0.07714583333,0.007959254086
0.07716666667,0.007979194634
0.0771875,0.007932269014
0.07720833333,0.007972887717
0.07722916667,0.007925531827
0.07725,0.007969596423
0.07727083333,0.007947367616
0.07729166667,0.007977335714
0.0773125,0.007973803207
0.07733333333,0.008017285727
0.07735416667,0.008000875823
0.077375,0.0080631366
0.07739583333,0.008084157482
0.07741666667,0.008148958907
0.0774375,0.008126023225
0.07745833333,0.008172694594
0.07747916667,0.008189477026
0.0775,0.008215636946
0.07752083333,0.008226569742
0.07754166667,0.008236022666
0.0775625,0.008191991597
0.07758333333,0.008224142715
0.07760416667,0.008193318732
0.077625,0.008163127117
0.07764583333,0.008172038943
0.07766666667,0.008109854534
0.0776875,0.008111134171
0.07770833333,0.008061221801
0.07772916667,0.008049557917
0.07775,0.008035661653
0.07777083333,0.00804648269
0.07779166667,0.008058502339
0.0778125,0.008075637743
0.07783333333,0.008085446432
0.07785416667,0.008133730851
0.077875,0.00811998453
0.07789583333,0.00818371214
0.07791666667,0.008136956953
0.0779375,0.008245534264
0.07795833333,0.00817938149
0.07797916667,0.008238706738
0.078,0.008185110986
0.07802083333,0.008267343044
0.07804166667,0.008263894357
0.0780625,0.008317200467
0.07808333333,0.00834465865
0.07810416667,0.008379807696
0.078125,0.008389886469
0.07814583333,0.008442212828
0.07816666667,0.008466253988
0.0781875,0.008540058509
0.07820833333,0.00856171269
0.07822916667,0.008605985902
0.07825,0.008617811836
0.07827083333,0.008742540143
0.07829166667,0.008777371608
0.0783125,0.008879926987
0.07833333333,0.008891142905
0.07835416667,0.008890238591
0.078375,0.008926807903
0.07839583333,0.008952277713
0.07841666667,0.009025292471
0.0784375,0.009072151035
0.07845833333,0.009134829044
0.07847916667,0.009169438854
0.0785,0.009175879881
0.07852083333,0.009151797742
0.07854166667,0.009192302823
0.0785625,0.009207649156
0.07858333333,0.009260019287
0.07860416667,0.009272324853
0.078625,0.009324180894
0.07864583333,0.009320330806
0.07866666667,0.009339034557
0.0786875,0.009284409694
0.07870833333,0.009337538853
0.07872916667,0.009313705377
0.07875,0.009397380054
0.07877083333,0.009347309358
0.07879166667,0.009384389035
0.0788125,0.009291474707
0.07883333333,0.009307396598
0.07885416667,0.009258581325
0.078875,0.009277208708
0.07889583333,0.009251130745
0.07891666667,0.009331354871
0.0789375,0.009314069524
0.07895833333,0.009380016476
0.07897916667,0.009354813024
0.079,0.009424464777
0.07902083333,0.009426568635
0.07904166667,0.00941598881
0.0790625,0.009431003593
0.07908333333,0.009443759918
0.07910416667,0.009469047189
0.079125,0.009505218826
0.07914583333,0.009474292397
0.07916666667,0.009489097632
0.0791875,0.009480917826
0.07920833333,0.009453227744
0.07922916667,0.009470292367
0.07925,0.009416028857
0.07927083333,0.009420916438
0.07929166667,0.00938748382
0.0793125,0.009357272647
0.07933333333,0.009337335825
0.07935416667,0.0093359733
0.079375,0.009298644029
0.07939583333,0.00930635538
0.07941666667,0.009255638346
0.0794375,0.009336319752
0.07945833333,0.009328208864
0.07947916667,0.009409380145
0.0795,0.009375590831
0.07952083333,0.009392606094
0.07954166667,0.009388486855
0.0795625,0.009440876544
0.07958333333,0.009430151433
0.07960416667,0.009500414133
0.079625,0.009508244693
0.07964583333,0.009558678605
0.07966666667,0.009500822052
0.0796875,0.009556755424
0.07970833333,0.009553156793
0.07972916667,0.00963977538
0.07975,0.009613160044
0.07977083333,0.009682172909
0.07979166667,0.009644664824
0.0798125,0.0096667381
0.07983333333,0.009651792236
0.07985416667,0.009660320356
0.079875,0.009665207937
0.07989583333,0.009681416675
0.07991666667,0.009677648544
0.0799375,0.009675141424
0.07995833333,0.009654091671
0.07997916667,0.009633026086
0.08,0.009636022151
0.08002083333,0.00959702488
0.08004166667,0.009617145173
0.0800625,0.009565426968
0.08008333333,0.009583064355
0.08010416667,0.009524211287
0.080125,0.009534612298
0.08014583333,0.009521045722
0.08016666667,0.009544146247
0.0801875,0.009516547434
0.08020833333,0.009529264644
0.08022916667,0.009471756406
0.08025,0.009492239915
0.08027083333,0.009437637404
0.08029166667,0.009454580024
0.0803125,0.009407714009
0.08033333333,0.009390362538
0.08035416667,0.009321534075
0.080375,0.009313543327
0.08039583333,0.009270758368
0.08041666667,0.009286915883
0.0804375,0.00924094487
0.08045833333,0.009281675331
0.08047916667,0.009255703539
0.0805,0.009253633209
0.08052083333,0.009216379374
0.08054166667,0.009202035144
0.0805625,0.009161291644
0.08058333333,0.009137774818
0.08060416667,0.009069312364
0.080625,0.009042998776
0.08064583333,0.008979564533
0.08066666667,0.008927048184
0.0806875,0.008894050494
0.08070833333,0.008806383237
0.08072916667,0.008808736689
0.08075,0.008731765673
0.08077083333,0.008743999526
0.08079166667,0.008679398336
0.0808125,0.008670363575
0.08083333333,0.008580628783
0.08085416667,0.008558964357
0.080875,0.008487670682
0.08089583333,0.008458656259
0.08091666667,0.008393897675
0.0809375,0.00836925488
0.08095833333,0.008303341456
0.08097916667,0.008294579573
0.081,0.008210089989
0.08102083333,0.0082149636
0.08104166667,0.008099172264
0.0810625,0.008062230423
0.08108333333,0.007953187451
0.08110416667,0.007932027802
0.081125,0.007839021273
0.08114583333,0.007824621163
0.08116666667,0.007763905451
0.0811875,0.007727609016
0.08120833333,0.007672978565
0.08122916667,0.007613744121
0.08125,0.007542629726
0.08127083333,0.007481666282
0.08129166667,0.007359618321
0.0813125,0.007317692507
0.08133333333,0.007198743522
0.08135416667,0.007151897065
0.081375,0.007059012074
0.08139583333,0.006997183897
0.08141666667,0.006889383774
0.0814375,0.006815161556
0.08145833333,0.006719163153
0.08147916667,0.006674839649
0.0815,0.006636735052
0.08152083333,0.006588067394
0.08154166667,0.006582200062
0.0815625,0.006484838203
0.08158333333,0.006417051423
0.08160416667,0.006326278206
0.081625,0.006288683508
0.08164583333,0.006183156744
0.08166666667,0.006169040687
0.0816875,0.006124879699
0.08170833333,0.006128408946
0.08172916667,0.006026485469
0.08175,0.006005133968
0.08177083333,0.005899979267
0.08179166667,0.005904876161
0.0818125,0.005813951604
0.08183333333,0.005868460052
0.08185416667,0.005818185862
0.081875,0.005880046636
0.08189583333,0.005762780551
0.08191666667,0.005823086016
0.0819375,0.005701266695
0.08195833333,0.00576271303
0.08197916667,0.005700288806
0.082,0.005753292702
0.08202083333,0.005678138696
0.08204166667,0.005725082941
0.0820625,0.005603670143
0.08208333333,0.005637769587
0.08210416667,0.005584263708
0.082125,0.005590470973
0.08214583333,0.005553890951
0.08216666667,0.005504421424
0.0821875,0.005446015857
0.08220833333,0.005365972407
0.08222916667,0.005305794533
0.08225,0.005244189873
0.08227083333,0.005135247018
0.08229166667,0.005055764224
0.0823125,0.004994703922
0.08233333333,0.00489573041
0.08235416667,0.004826507065
0.082375,0.004666478839
0.08239583333,0.004635003861
0.08241666667,0.004477080423
0.0824375,0.004472142085
0.08245833333,0.004312859382
0.08247916667,0.004295265768
0.0825,0.004170432221
0.08252083333,0.004128618632
0.08254166667,0.003988696728
0.0825625,0.003939921036
0.08258333333,0.003809211543
0.08260416667,0.003786411369
0.082625,0.003623042488
0.08264583333,0.003623148194
0.08266666667,0.003432432888
0.0826875,0.003448879346
0.08270833333,0.003261989448
0.08272916667,0.003312305314
0.08275,0.003196144477
0.08277083333,0.003226311645
0.08279166667,0.00314403302
0.0828125,0.003136576386
0.08283333333,0.003038218245
0.08285416667,0.003002215642
0.082875,0.00290034269
0.08289583333,0.002862475347
0.08291666667,0.002767011523
0.0829375,0.00273353653
0.08295833333,0.00261001708
0.08297916667,0.002601634013
0.083,0.00249351305
0.08302083333,0.002455831971
0.08304166667,0.002375822514
0.0830625,0.002256547799
0.08308333333,0.002149085281
0.08310416667,0.002022181405
0.083125,0.001955382293
0.08314583333,0.001856176183
0.08316666667,0.001792548923
0.0831875,0.001693984726
0.08320833333,0.001609133906
0.08322916667,0.001553527662
0.08325,0.001471906668
0.08327083333,0.001421253663
0.08329166667,0.001406236319
0.0833125,0.001267119544
0.08333333333,0.00132966158
0.08335416667,0.001192017342
0.083375,0.001264906954
0.08339583333,0.001116806292
0.08341666667,0.001081260038
0.0834375,0.001000192482
0.08345833333,0.0009629536653
0.08347916667,0.0008323182701
0.0835,0.0008321145433
0.08352083333,0.0006935186684
0.08354166667,0.0007021586061
0.0835625,0.0005704943324
0.08358333333,0.0005369805149
0.08360416667,0.0003931642277
0.083625,0.0003264942789
0.08364583333,0.0001692832593
0.08366666667,0.0001409420511
0.0836875,-3.334716894e-06
0.08370833333,-5.070761108e-05
0.08372916667,-0.0001830704132
0.08375,-0.0002497347887
0.08377083333,-0.0003539473109
0.08379166667,-0.0004142548423
0.0838125,-0.0005051296903
0.08383333333,-0.000556423096
0.08385416667,-0.0006991677219
0.083875,-0.000754749286
0.08389583333,-0.0008823055541
0.08391666667,-0.0009629030828
0.0839375,-0.001044473029
0.08395833333,-0.001128137694
0.08397916667,-0.001178641571
0.084,-0.00130402681
0.08402083333,-0.001356261666
0.08404166667,-0.001461170032
0.0840625,-0.001518577687
0.08408333333,-0.001571322558
0.08410416667,-0.001655447413
0.084125,-0.001703717746
0.08414583333,-0.001799762831
0.08416666667,-0.001929056714
0.0841875,-0.001998549094
0.08420833333,-0.002163742436
0.08422916667,-0.002223065356
0.08425,-0.002385700122
0.08427083333,-0.002429389628
0.08429166667,-0.002558487467
0.0843125,-0.002619977342
0.08433333333,-0.002746885642
0.08435416667,-0.002848798176
0.084375,-0.002944761422
0.08439583333,-0.00299741677
0.08441666667,-0.003111705184
0.0844375,-0.003205500776
0.08445833333,-0.003342041513
0.08447916667,-0.003427839838
0.0845,-0.003593974747
0.08452083333,-0.003666404635
0.08454166667,-0.003800859675
0.0845625,-0.003856011434
0.08458333333,-0.003940515686
0.08460416667,-0.004019208252
0.084625,-0.004101281986
0.08464583333,-0.004170809872
0.08466666667,-0.004238955211
0.0846875,-0.004306859802
0.08470833333,-0.004356481135
0.08472916667,-0.004406018648
0.08475,-0.004471527413
0.08477083333,-0.004505539779
0.08479166667,-0.004566888325
0.0848125,-0.004627787508
0.08483333333,-0.004688334651
0.08485416667,-0.004727116786
0.084875,-0.004756519571
0.08489583333,-0.00479190005
0.08491666667,-0.004830926191
0.0849375,-0.004901433364
0.08495833333,-0.004935225938
0.08497916667,-0.004992254544
0.085,-0.004995334428
0.08502083333,-0.005038622301
0.08504166667,-0.005045171361
0.0850625,-0.005091462284
0.08508333333,-0.005132226739
0.08510416667,-0.005205712281
0.085125,-0.005224559922
0.08514583333,-0.005301777739
0.08516666667,-0.005288039334
0.0851875,-0.005372953601
0.08520833333,-0.005406457465
0.08522916667,-0.005482943729
0.08525,-0.005517200567
0.08527083333,-0.005592104048
0.08529166667,-0.005614538211
0.0853125,-0.005684476811
0.08533333333,-0.005708820187
0.08535416667,-0.005783792585
0.085375,-0.005848462693
0.08539583333,-0.005931141321
0.08541666667,-0.006009184755
0.0854375,-0.006107775494
0.08545833333,-0.006180081051
0.08547916667,-0.006276398897
0.0855,-0.006353178062
0.08552083333,-0.006442978978
0.08554166667,-0.0065269107
0.0855625,-0.006590838544
0.08558333333,-0.006653533783
0.08560416667,-0.006711200345
0.085625,-0.006770598702
0.08564583333,-0.006805655546
0.08566666667,-0.00684040226
0.0856875,-0.006879419554
0.08570833333,-0.006889309734
0.08572916667,-0.00693295151
0.08575,-0.006956596859
0.08577083333,-0.006995219272
0.08579166667,-0.007048765663
0.0858125,-0.007110673003
0.08583333333,-0.007166604977
0.08585416667,-0.007238452788
0.085875,-0.007303654682
0.08589583333,-0.007367243525
0.08591666667,-0.007475828286
0.0859375,-0.007542158477
0.08595833333,-0.007653366774
0.08597916667,-0.007697361056
0.086,-0.007804035675
0.08602083333,-0.007886257023
0.08604166667,-0.007974252105
0.0860625,-0.008007029071
0.08608333333,-0.008094406687
0.08610416667,-0.00813366659
0.086125,-0.008220013231
0.08614583333,-0.008219292387
0.08616666667,-0.008273378015
0.0861875,-0.008294825442
0.08620833333,-0.00831637159
0.08622916667,-0.008326807059
0.08625,-0.008345039561
0.08627083333,-0.008349095471
0.08629166667,-0.00836336799
0.0863125,-0.008359225467
0.08633333333,-0.008331591263
0.08635416667,-0.00828919746
0.086375,-0.008263813332
0.08639583333,-0.008250204846
0.08641666667,-0.008263449185
0.0864375,-0.008272611536
0.08645833333,-0.008308812976
0.08647916667,-0.008315550163
0.0865,-0.0083462568
0.08652083333,-0.008423143998
0.08654166667,-0.008415056393
0.0865625,-0.00849661883
0.08658333333,-0.00849154219
0.08660416667,-0.00854416471
0.086625,-0.008574080653
0.08664583333,-0.008599922992
0.08666666667,-0.008632625453
0.0866875,-0.008678470738
0.08670833333,-0.00869899895
0.08672916667,-0.008753077127
0.08675,-0.008759179153
0.08677083333,-0.008828300983
0.08679166667,-0.008850902319
0.0868125,-0.008886288851
0.08683333333,-0.008902476169
0.08685416667,-0.008937744424
0.086875,-0.00894769188
0.08689583333,-0.009006260894
0.08691666667,-0.008988371119
0.0869375,-0.009042272344
0.08695833333,-0.009017287754
0.08697916667,-0.009031237103
0.087,-0.009007704444
0.08702083333,-0.009031255729
0.08704166667,-0.009021216072
0.0870625,-0.009062966332
0.08708333333,-0.009093062021
0.08710416667,-0.009100212716
0.087125,-0.009144981392
0.08714583333,-0.00915669743
0.08716666667,-0.009190840647
0.0871875,-0.009220279753
0.08720833333,-0.00925286673
0.08722916667,-0.009295073338
0.08725,-0.009334613569
0.08727083333,-0.009356827475
0.08729166667,-0.009423953481
0.0873125,-0.009412592277
0.08733333333,-0.009437915869
0.08735416667,-0.009412994608
0.087375,-0.009421082214
0.08739583333,-0.009412561543
0.08741666667,-0.009424451739
0.0874375,-0.009395182133
0.08745833333,-0.009414589964
0.08747916667,-0.009385348298
0.0875,-0.009380457923
0.08752083333,-0.009357620962
0.08754166667,-0.009332251735
0.0875625,-0.00930525735
0.08758333333,-0.009302324615
0.08760416667,-0.009254800156
0.087625,-0.009257693775
0.08764583333,-0.009230482392
0.08766666667,-0.009208436124
0.0876875,-0.009183227085
0.08770833333,-0.009120581672
0.08772916667,-0.009066283703
0.08775,-0.009029889479
0.08777083333,-0.008975264616
0.08779166667,-0.008983322419
0.0878125,-0.008965329267
0.08783333333,-0.00895758532
0.08785416667,-0.008937701583
0.087875,-0.00891749002
0.08789583333,-0.008912254125
0.08791666667,-0.008914513513
0.0879375,-0.008927560411
0.08795833333,-0.008925197646
0.08797916667,-0.008951657452
0.088,-0.008929884061
0.08802083333,-0.008938794024
0.08804166667,-0.008905770257
0.0880625,-0.008895510808
0.08808333333,-0.008882435039
0.08810416667,-0.008872773498
0.088125,-0.008840327151
0.08814583333,-0.008859389462
0.08816666667,-0.008838859387
0.0881875,-0.00886054989
0.08820833333,-0.008770411834
0.08822916667,-0.008783801459
0.08825,-0.008714847267
0.08827083333,-0.008763654158
0.08829166667,-0.008752332069
0.0883125,-0.008784911595
0.08833333333,-0.008738448843
0.08835416667,-0.008759131655
0.088375,-0.008713072166
0.08839583333,-0.008725843392
0.08841666667,-0.008696068078
0.0884375,-0.008743491955
0.08845833333,-0.008762260899
0.08847916667,-0.00881030038
0.0885,-0.00880821608
0.08852083333,-0.008853419684
0.08854166667,-0.008852527477
0.0885625,-0.008896793239
0.08858333333,-0.008902683854
0.08860416667,-0.008956006728
0.088625,-0.009007146582
0.08864583333,-0.009045578539
0.08866666667,-0.009055582806
0.0886875,-0.009078122675
0.08870833333,-0.009047688916
0.08872916667,-0.009076239541
0.08875,-0.009066615254
0.08877083333,-0.009061619639
