time,data
0,-4.71964654e-08
2.083333333e-05,-4.348762772e-08
4.166666667e-05,-3.991112507e-08
6.25e-05,-3.649396874e-08
8.333333333e-05,-3.302972118e-08
0.0001041666667,-2.939668953e-08
0.000125,-2.553306544e-08
0.0001458333333,-2.148411937e-08
0.0001666666667,-1.74182837e-08
0.0001875,-1.332382737e-08
0.0002083333333,-9.202199891e-09
0.0002291666667,-4.8128177e-09
0.00025,-4.758973077e-11
0.0002708333333,5.15860199e-09
0.0002916666667,1.072840394e-08
0.0003125,1.646236392e-08
0.0003333333333,2.233570484e-08
0.0003541666667,2.828208778e-08
0.000375,3.448781882e-08
0.0003958333333,4.099443984e-08
0.0004166666667,4.782159735e-08
0.0004375,5.487051169e-08
0.0004583333333,6.191913116e-08
0.0004791666667,6.894004656e-08
0.0005,7.584493744e-08
0.0005208333333,8.283530661e-08
0.0005416666667,8.997115941e-08
0.0005625,9.734905859e-08
0.0005833333333,1.049106686e-07
0.0006041666667,1.124789151e-07
0.000625,1.199837953e-07
0.0006458333333,1.272850341e-07
0.0006666666667,1.345313763e-07
0.0006875,1.417493962e-07
0.0007083333333,1.490485744e-07
0.0007291666667,1.563327743e-07
0.00075,1.633474085e-07
0.0007708333333,1.699187493e-07
0.0007916666667,1.757780552e-07
0.0008125,1.811042836e-07
0.0008333333333,1.859592942e-07
0.0008541666667,1.906149265e-07
0.000875,1.950392345e-07
0.0008958333333,1.99002784e-07
0.0009166666667,2.023098205e-07
0.0009375,2.046985088e-07
0.0009583333333,2.064305136e-07
0.0009791666667,2.077189976e-07
0.001,2.08897518e-07
0.001020833333,2.099417458e-07
0.001041666667,2.104478938e-07
0.0010625,2.100688334e-07
0.001083333333,2.08428375e-07
0.001104166667,2.057953594e-07
0.001125,2.024363965e-07
0.001145833333,1.987378653e-07
0.001166666667,1.945924311e-07
0.0011875,1.895863448e-07
0.001208333333,1.832893872e-07
0.001229166667,1.755018673e-07
0.00125,1.666511054e-07
0.001270833333,1.572316961e-07
0.001291666667,1.477555571e-07
0.0013125,1.381171444e-07
0.001333333333,1.278778399e-07
0.001354166667,1.166095487e-07
0.001375,1.040917681e-07
0.001395833333,9.084081398e-08
0.001416666667,7.722186268e-08
0.0014375,6.369869965e-08
0.001458333333,4.995553127e-08
0.001479166667,3.549008554e-08
0.0015,1.983380216e-08
0.001520833333,2.840521818e-09
0.001541666667,-1.494420943e-08
0.0015625,-3.304188567e-08
0.001583333333,-5.098344147e-08
0.001604166667,-6.88823647e-08
0.001625,-8.712096644e-08
0.001645833333,-1.059357402e-07
0.001666666667,-1.253881408e-07
0.0016875,-1.44894031e-07
0.001708333333,-1.640601255e-07
0.001729166667,-1.824112132e-07
0.00175,-2.001730763e-07
0.001770833333,-2.176557246e-07
0.001791666667,-2.353173869e-07
0.0018125,-2.533179781e-07
0.001833333333,-2.71361472e-07
0.001854166667,-2.891304405e-07
0.001875,-3.061469442e-07
0.001895833333,-3.224428724e-07
0.001916666667,-3.382304783e-07
0.0019375,-3.537969917e-07
0.001958333333,-3.694085535e-07
0.001979166667,-3.845964898e-07
0.002,-3.989897266e-07
0.002020833333,-4.117613628e-07
0.002041666667,-4.227871671e-07
0.0020625,-4.322252778e-07
0.002083333333,-4.406109042e-07
0.002104166667,-4.484642204e-07
0.002125,-4.556587783e-07
0.002145833333,-4.617577929e-07
0.002166666667,-4.660905688e-07
0.0021875,-4.683935799e-07
0.002208333333,-4.691774791e-07
0.002229166667,-4.691347897e-07
0.00225,-4.690299136e-07
0.002270833333,-4.686194472e-07
0.002291666667,-4.671825309e-07
0.0023125,-4.636235076e-07
0.002333333333,-4.575519768e-07
0.002354166667,-4.493139727e-07
0.002375,-4.398893054e-07
0.002395833333,-4.29886569e-07
0.002416666667,-4.191707603e-07
0.0024375,-4.067620694e-07
0.002458333333,-3.917017182e-07
0.002479166667,-3.737634984e-07
0.0025,-3.538008286e-07
0.002520833333,-3.330665379e-07
0.002541666667,-3.125500996e-07
0.0025625,-2.919677229e-07
0.002583333333,-2.70497992e-07
0.002604166667,-2.469959384e-07
0.002625,-2.214079871e-07
0.002645833333,-1.94448603e-07
0.002666666667,-1.672922423e-07
0.0026875,-1.40531867e-07
0.002708333333,-1.13729044e-07
0.002729166667,-8.571878851e-08
0.00275,-5.55884192e-08
0.002770833333,-2.312406977e-08
0.002791666667,1.062465671e-08
0.0028125,4.46449917e-08
0.002833333333,7.801462942e-08
0.002854166667,1.110537511e-07
0.002875,1.443730469e-07
0.002895833333,1.786482215e-07
0.002916666667,2.137420694e-07
0.0029375,2.488180826e-07
0.002958333333,2.828303138e-07
0.002979166667,3.151985766e-07
0.003,3.460577886e-07
0.003020833333,3.762924052e-07
0.003041666667,4.065441317e-07
0.0030625,4.37310689e-07
0.003083333333,4.679708638e-07
0.003104166667,4.979925166e-07
0.003125,5.264828928e-07
0.003145833333,5.535226251e-07
0.003166666667,5.793980336e-07
0.0031875,6.048360319e-07
0.003208333333,6.300818995e-07
0.003229166667,6.546629834e-07
0.00325,6.775913448e-07
0.003270833333,6.976887903e-07
0.003291666667,7.144686833e-07
0.0033125,7.284072581e-07
0.003333333333,7.403175459e-07
0.003354166667,7.513707487e-07
0.003375,7.611566275e-07
0.003395833333,7.692561894e-07
0.003416666667,7.741164154e-07
0.0034375,7.756464697e-07
0.003458333333,7.744010873e-07
0.003479166667,7.718691677e-07
0.0035,7.692888175e-07
0.003520833333,7.663356882e-07
0.003541666667,7.617518918e-07
0.0035625,7.536932571e-07
0.003583333333,7.413172511e-07
0.003604166667,7.255142123e-07
0.003625,7.075760209e-07
0.003645833333,6.891020803e-07
0.003666666667,6.693303476e-07
0.0036875,6.471488518e-07
0.003708333333,6.204479632e-07
0.003729166667,5.892586614e-07
0.00375,5.54749306e-07
0.003770833333,5.192939057e-07
0.003791666667,4.844201271e-07
0.0038125,4.497523491e-07
0.003833333333,4.138244094e-07
0.003854166667,3.7478938e-07
0.003875,3.324895488e-07
0.003895833333,2.883251682e-07
0.003916666667,2.439835214e-07
0.0039375,2.008761442e-07
0.003958333333,1.576240862e-07
0.003979166667,1.130090013e-07
0.004,6.471223912e-08
0.004020833333,1.323542076e-08
0.004041666667,-4.032403567e-08
0.0040625,-9.376503129e-08
0.004083333333,-1.458953562e-07
0.004104166667,-1.97218526e-07
0.004125,-2.487112454e-07
0.004145833333,-3.016084236e-07
0.004166666667,-3.555101671e-07
0.0041875,-4.089894503e-07
0.004208333333,-4.605236654e-07
0.004229166667,-5.087958357e-07
0.00425,-5.548075706e-07
0.004270833333,-5.991531111e-07
0.004291666667,-6.439498179e-07
0.0043125,-6.888076314e-07
0.004333333333,-7.337237093e-07
0.004354166667,-7.76930392e-07
0.004375,-8.176506867e-07
0.004395833333,-8.558567401e-07
0.004416666667,-8.920297319e-07
0.0044375,-9.276720903e-07
0.004458333333,-9.626776318e-07
0.004479166667,-9.965898471e-07
0.0045,-1.027648068e-06
0.004520833333,-1.053798087e-06
0.004541666667,-1.075069349e-06
0.0045625,-1.091198897e-06
0.004583333333,-1.105006959e-06
0.004604166667,-1.116649628e-06
0.004625,-1.127017981e-06
0.004645833333,-1.13405099e-06
0.004666666667,-1.136269134e-06
0.0046875,-1.133240403e-06
0.004708333333,-1.125846666e-06
0.004729166667,-1.116983753e-06
0.00475,-1.10784606e-06
0.004770833333,-1.098512598e-06
0.004791666667,-1.086575708e-06
0.0048125,-1.069097493e-06
0.004833333333,-1.045532599e-06
0.004854166667,-1.016137958e-06
0.004875,-9.84689791e-07
0.004895833333,-9.516671184e-07
0.004916666667,-9.178317555e-07
0.0049375,-8.796439488e-07
0.004958333333,-8.351930205e-07
0.004979166667,-7.838756346e-07
0.005,-7.276914289e-07
0.005020833333,-6.707874149e-07
0.005041666667,-6.146974556e-07
0.0050625,-5.597082122e-07
0.005083333333,-5.028337e-07
0.005104166667,-4.415068702e-07
0.005125,-3.759202514e-07
0.005145833333,-3.071372134e-07
0.005166666667,-2.395127296e-07
0.0051875,-1.729540458e-07
0.005208333333,-1.077935252e-07
0.005229166667,-3.987080177e-08
0.00525,3.240508306e-08
0.005270833333,1.095516566e-07
0.005291666667,1.893728268e-07
0.0053125,2.683916875e-07
0.005333333333,3.455408546e-07
0.005354166667,4.20487936e-07
0.005375,4.957220199e-07
0.005395833333,5.72333704e-07
0.005416666667,6.499114988e-07
0.0054375,7.27035399e-07
0.005458333333,7.999817058e-07
0.005479166667,8.690701065e-07
0.0055,9.32885996e-07
0.005520833333,9.952919982e-07
0.005541666667,1.056574206e-06
0.0055625,1.118479645e-06
0.005583333333,1.179788796e-06
0.005604166667,1.238286472e-06
0.005625,1.293489959e-06
0.005645833333,1.343866188e-06
0.005666666667,1.391695605e-06
0.0056875,1.437657602e-06
0.005708333333,1.482529228e-06
0.005729166667,1.52599273e-06
0.00575,1.564230502e-06
0.005770833333,1.596736865e-06
0.005791666667,1.620096555e-06
0.0058125,1.637537366e-06
0.005833333333,1.649515639e-06
0.005854166667,1.659362624e-06
0.005875,1.666610274e-06
0.005895833333,1.669158223e-06
0.005916666667,1.665342893e-06
0.0059375,1.653002982e-06
0.005958333333,1.635215199e-06
0.005979166667,1.614192342e-06
0.006,1.593148681e-06
0.006020833333,1.572022256e-06
0.006041666667,1.546567205e-06
0.0060625,1.5148496e-06
0.006083333333,1.472522172e-06
0.006104166667,1.424003244e-06
0.006125,1.370313612e-06
0.006145833333,1.316140469e-06
0.006166666667,1.259870146e-06
0.0061875,1.198099653e-06
0.006208333333,1.12809073e-06
0.006229166667,1.047642741e-06
0.00625,9.616044281e-07
0.006270833333,8.735054848e-07
0.006291666667,7.875485153e-07
0.0063125,7.033181646e-07
0.006333333333,6.162718478e-07
0.006354166667,5.246882324e-07
0.006375,4.254996213e-07
0.006395833333,3.244214781e-07
0.006416666667,2.228467935e-07
0.0064375,1.253049646e-07
0.006458333333,2.847942149e-08
0.006479166667,-7.081496989e-08
0.0065,-1.7594013e-07
0.006520833333,-2.880975956e-07
0.006541666667,-4.024668385e-07
0.0065625,-5.166911592e-07
0.006583333333,-6.265378261e-07
0.006604166667,-7.335674468e-07
0.006625,-8.404944083e-07
0.006645833333,-9.479277878e-07
0.006666666667,-1.058116027e-06
0.0066875,-1.164642413e-06
0.006708333333,-1.267716016e-06
0.006729166667,-1.362010494e-06
0.00675,-1.450760692e-06
0.006770833333,-1.535517754e-06
0.006791666667,-1.618911369e-06
0.0068125,-1.703162411e-06
0.006833333333,-1.785016707e-06
0.006854166667,-1.864008937e-06
0.006875,-1.936217586e-06
0.006895833333,-2.002411975e-06
0.006916666667,-2.064181217e-06
0.0069375,-2.122569867e-06
0.006958333333,-2.180762976e-06
0.006979166667,-2.234150088e-06
0.007,-2.28294175e-06
0.007020833333,-2.319867917e-06
0.007041666667,-2.346694146e-06
0.0070625,-2.36267374e-06
0.007083333333,-2.37226709e-06
0.007104166667,-2.378738827e-06
0.007125,-2.380481646e-06
0.007145833333,-2.377126066e-06
0.007166666667,-2.362472742e-06
0.0071875,-2.337490287e-06
0.007208333333,-2.303728934e-06
0.007229166667,-2.265534931e-06
0.00725,-2.228730864e-06
0.007270833333,-2.189303132e-06
0.007291666667,-2.14712577e-06
0.0073125,-2.092151135e-06
0.007333333333,-2.026023367e-06
0.007354166667,-1.948341378e-06
0.007375,-1.865667969e-06
0.007395833333,-1.782081085e-06
0.007416666667,-1.695105652e-06
0.0074375,-1.602309112e-06
0.007458333333,-1.495846163e-06
0.007479166667,-1.377138233e-06
0.0075,-1.249360821e-06
0.007520833333,-1.119537387e-06
0.007541666667,-9.939957408e-07
0.0075625,-8.689617061e-07
0.007583333333,-7.435803582e-07
0.007604166667,-6.080734352e-07
0.007625,-4.66269455e-07
0.007645833333,-3.18477106e-07
0.007666666667,-1.730303154e-07
0.0076875,-3.220329603e-08
0.007708333333,1.071346105e-07
0.007729166667,2.482798038e-07
0.00775,3.991792425e-07
0.007770833333,5.570324788e-07
0.007791666667,7.197506875e-07
0.0078125,8.805291145e-07
0.007833333333,1.034847742e-06
0.007854166667,1.186315671e-06
0.007875,1.334191552e-06
0.007895833333,1.486559995e-06
0.007916666667,1.637671062e-06
0.0079375,1.7881232e-06
0.007958333333,1.929817245e-06
0.007979166667,2.061544592e-06
0.008,2.184625146e-06
0.008020833333,2.300906544e-06
0.008041666667,2.417109499e-06
0.0080625,2.531322025e-06
0.008083333333,2.644692131e-06
0.008104166667,2.751986358e-06
0.008125,2.850357305e-06
0.008145833333,2.941283583e-06
0.008166666667,3.023092404e-06
0.0081875,3.103944209e-06
0.008208333333,3.179226496e-06
0.008229166667,3.252794841e-06
0.00825,3.315489266e-06
0.008270833333,3.365435759e-06
0.008291666667,3.399997468e-06
0.0083125,3.419639825e-06
0.008333333333,3.432104222e-06
0.008354166667,3.437147598e-06
0.008375,3.438823114e-06
0.008395833333,3.430758852e-06
0.008416666667,3.409182909e-06
0.0084375,3.373982508e-06
0.008458333333,3.324740646e-06
0.008479166667,3.273195716e-06
0.0085,3.217811127e-06
0.008520833333,3.164364216e-06
0.008541666667,3.101758693e-06
0.0085625,3.026516424e-06
0.008583333333,2.934106305e-06
0.008604166667,2.826889158e-06
0.008625,2.714170932e-06
0.008645833333,2.597133516e-06
0.008666666667,2.478797342e-06
0.0086875,2.349510169e-06
0.008708333333,2.204689281e-06
0.008729166667,2.043422683e-06
0.00875,1.868918389e-06
0.008770833333,1.695013111e-06
0.008791666667,1.521351237e-06
0.0088125,1.354091069e-06
0.008833333333,1.180208983e-06
0.008854166667,9.985027418e-07
0.008875,8.051480336e-07
0.008895833333,6.057588848e-07
0.008916666667,4.099833575e-07
0.0089375,2.176489744e-07
0.008958333333,3.065636989e-08
0.008979166667,-1.625713395e-07
0.009,-3.652016858e-07
0.009020833333,-5.781084838e-07
0.009041666667,-7.97609971e-07
0.0090625,-1.011547056e-06
0.009083333333,-1.221944672e-06
0.009104166667,-1.422533387e-06
0.009125,-1.625100481e-06
0.009145833333,-1.827357892e-06
0.009166666667,-2.032327075e-06
0.0091875,-2.233548003e-06
0.009208333333,-2.423528713e-06
0.009229166667,-2.602202812e-06
0.00925,-2.766583293e-06
0.009270833333,-2.926102979e-06
0.009291666667,-3.081963769e-06
0.0093125,-3.237471674e-06
0.009333333333,-3.390975962e-06
0.009354166667,-3.534541975e-06
0.009375,-3.670220394e-06
0.009395833333,-3.790452411e-06
0.009416666667,-3.905849553e-06
0.0094375,-4.013143553e-06
0.009458333333,-4.119220648e-06
0.009479166667,-4.218566573e-06
0.0095,-4.305330094e-06
0.009520833333,-4.37603012e-06
0.009541666667,-4.424012786e-06
0.0095625,-4.457184787e-06
0.009583333333,-4.476875347e-06
0.009604166667,-4.490777428e-06
0.009625,-4.49837853e-06
0.009645833333,-4.492390872e-06
0.009666666667,-4.472035471e-06
0.0096875,-4.428387911e-06
0.009708333333,-4.374025593e-06
0.009729166667,-4.30928003e-06
0.00975,-4.246689514e-06
0.009770833333,-4.18108084e-06
0.009791666667,-4.106295364e-06
0.0098125,-4.014609658e-06
0.009833333333,-3.898708201e-06
0.009854166667,-3.767863745e-06
0.009875,-3.625635145e-06
0.009895833333,-3.482431111e-06
0.009916666667,-3.334666189e-06
0.0099375,-3.173281584e-06
0.009958333333,-2.993907856e-06
0.009979166667,-2.788590336e-06
0.01,-2.5624513e-06
0.01002083333,-2.32417824e-06
0.01004166667,-2.106935654e-06
0.0100625,-1.905218369e-06
0.01008333333,-1.703584076e-06
0.01010416667,-1.486605697e-06
0.010125,-1.247166779e-06
0.01014583333,-9.910012295e-07
0.01016666667,-7.348126587e-07
0.0101875,-4.902013302e-07
0.01020833333,-2.550389695e-07
0.01022916667,-1.629443602e-08
0.01025,2.319622467e-07
0.01027083333,5.008137691e-07
0.01029166667,7.787808727e-07
0.0103125,1.062098022e-06
0.01033333333,1.333840714e-06
0.01035416667,1.599094048e-06
0.010375,1.854219704e-06
0.01039583333,2.107891078e-06
0.01041666667,2.357088988e-06
0.0104375,2.597226285e-06
0.01045833333,2.832579185e-06
0.01047916667,3.059645906e-06
0.0105,3.279867769e-06
0.01052083333,3.497582384e-06
0.01054166667,3.707691803e-06
0.0105625,3.912447482e-06
0.01058333333,4.102164439e-06
0.01060416667,4.280391295e-06
0.010625,4.443192665e-06
0.01064583333,4.604257356e-06
0.01066666667,4.755920145e-06
0.0106875,4.907475159e-06
0.01070833333,5.048857474e-06
0.01072916667,5.180334483e-06
0.01075,5.294385119e-06
0.01077083333,5.383926691e-06
0.01079166667,5.454517577e-06
0.0108125,5.505316039e-06
0.01083333333,5.545418389e-06
0.01085416667,5.581815003e-06
0.010875,5.606469585e-06
0.01089583333,5.620216598e-06
0.01091666667,5.597602922e-06
0.0109375,5.553359642e-06
0.01095833333,5.479312676e-06
0.01097916667,5.406627679e-06
0.011,5.336935828e-06
0.01102083333,5.274379873e-06
0.01104166667,5.212705673e-06
0.0110625,5.121767572e-06
0.01108333333,4.99955604e-06
0.01110416667,4.845197054e-06
0.011125,4.671103397e-06
0.01114583333,4.49833442e-06
0.01116666667,4.325649115e-06
0.0111875,4.157625881e-06
0.01120833333,3.959166406e-06
0.01122916667,3.736492999e-06
0.01125,3.480849273e-06
0.01127083333,3.215346169e-06
0.01129166667,2.948224619e-06
0.0113125,2.695870535e-06
0.01133333333,2.445548489e-06
0.01135416667,2.188358849e-06
0.011375,1.916325118e-06
0.01139583333,1.631582677e-06
0.01141666667,1.340926929e-06
0.0114375,1.052330276e-06
0.01145833333,7.623728493e-07
0.01147916667,4.759879459e-07
0.0115,1.710995861e-07
0.01152083333,-1.37150721e-07
0.01154166667,-4.568575491e-07
0.0115625,-7.688825008e-07
0.01158333333,-1.074697366e-06
0.01160416667,-1.380267349e-06
0.011625,-1.680497803e-06
0.01164583333,-1.989161319e-06
0.01166666667,-2.301705536e-06
0.0116875,-2.604062956e-06
0.01170833333,-2.892833663e-06
0.01172916667,-3.155884542e-06
0.01175,-3.401274398e-06
0.01177083333,-3.634532732e-06
0.01179166667,-3.874570211e-06
0.0118125,-4.108395842e-06
0.01183333333,-4.351890766e-06
0.01185416667,-4.579947017e-06
0.011875,-4.792293566e-06
0.01189583333,-4.992976301e-06
0.01191666667,-5.171118119e-06
0.0119375,-5.3394715e-06
0.01195833333,-5.502845852e-06
0.01197916667,-5.654588676e-06
0.012,-5.802533906e-06
0.01202083333,-5.915990187e-06
0.01204166667,-6.013055099e-06
0.0120625,-6.074709745e-06
0.01208333333,-6.12709664e-06
0.01210416667,-6.151352864e-06
0.012125,-6.167157153e-06
0.01214583333,-6.180484434e-06
0.01216666667,-6.185171515e-06
0.0121875,-6.164695151e-06
0.01220833333,-6.125419532e-06
0.01222916667,-6.067324648e-06
0.01225,-6.001107977e-06
0.01227083333,-5.920437616e-06
0.01229166667,-5.821174454e-06
0.0123125,-5.701092959e-06
0.01233333333,-5.572517694e-06
0.01235416667,-5.407343451e-06
0.012375,-5.234734999e-06
0.01239583333,-5.052006145e-06
0.01241666667,-4.864387392e-06
0.0124375,-4.652528787e-06
0.01245833333,-4.425718544e-06
0.01247916667,-4.17445608e-06
0.0125,-3.907467999e-06
0.01252083333,-3.636481551e-06
0.01254166667,-3.367433465e-06
0.0125625,-3.08779363e-06
0.01258333333,-2.806266366e-06
0.01260416667,-2.504161102e-06
0.012625,-2.193621413e-06
0.01264583333,-1.873754741e-06
0.01266666667,-1.565955699e-06
0.0126875,-1.248217586e-06
0.01270833333,-9.341270584e-07
0.01272916667,-6.036148648e-07
0.01275,-2.651113391e-07
0.01277083333,9.647074251e-08
0.01279166667,4.400630473e-07
0.0128125,7.829030437e-07
0.01283333333,1.114135785e-06
0.01285416667,1.44618582e-06
0.012875,1.786788062e-06
0.01289583333,2.13809858e-06
0.01291666667,2.47435355e-06
0.0129375,2.794368356e-06
0.01295833333,3.093489568e-06
0.01297916667,3.377178473e-06
0.013,3.649749488e-06
0.01302083333,3.939333055e-06
0.01304166667,4.220049959e-06
0.0130625,4.498869203e-06
0.01308333333,4.751017059e-06
0.01310416667,4.968449048e-06
0.013125,5.176832929e-06
0.01314583333,5.380947641e-06
0.01316666667,5.580484412e-06
0.0131875,5.792499451e-06
0.01320833333,5.984763902e-06
0.01322916667,6.152717106e-06
0.01325,6.295499134e-06
0.01327083333,6.394867796e-06
0.01329166667,6.469012988e-06
0.0133125,6.561291229e-06
0.01333333333,6.635205864e-06
0.01335416667,6.694169315e-06
0.013375,6.723637398e-06
0.01339583333,6.717406904e-06
0.01341666667,6.674186807e-06
0.0134375,6.606836905e-06
0.01345833333,6.52080098e-06
0.01347916667,6.4706378e-06
0.0135,6.41078941e-06
0.01352083333,6.357938219e-06
0.01354166667,6.270590802e-06
0.0135625,6.152586593e-06
0.01358333333,5.981889444e-06
0.01360416667,5.785866961e-06
0.013625,5.569611403e-06
0.01364583333,5.368554866e-06
0.01366666667,5.169946235e-06
0.0136875,4.967538189e-06
0.01370833333,4.731582976e-06
0.01372916667,4.466950486e-06
0.01375,4.150538643e-06
0.01377083333,3.803847221e-06
0.01379166667,3.469732064e-06
0.0138125,3.15569855e-06
0.01383333333,2.871307515e-06
0.01385416667,2.596428203e-06
0.013875,2.274518238e-06
0.01389583333,1.940285756e-06
0.01391666667,1.5771883e-06
0.0139375,1.197965389e-06
0.01395833333,8.270674243e-07
0.01397916667,4.618253229e-07
0.014,1.010909187e-07
0.01402083333,-2.343951593e-07
0.01404166667,-5.827562291e-07
0.0140625,-9.246478498e-07
0.01408333333,-1.278033437e-06
0.01410416667,-1.634490559e-06
0.014125,-2.030357564e-06
0.01414583333,-2.441281367e-06
0.01416666667,-2.836268322e-06
0.0141875,-3.196465286e-06
0.01420833333,-3.48957542e-06
0.01422916667,-3.739920658e-06
0.01425,-4.003019058e-06
0.01427083333,-4.276759682e-06
0.01429166667,-4.609284588e-06
0.0143125,-4.951566552e-06
0.01433333333,-5.245428383e-06
0.01435416667,-5.444632734e-06
0.014375,-5.565115316e-06
0.01439583333,-5.688209967e-06
0.01441666667,-5.875273928e-06
0.0144375,-6.107936315e-06
0.01445833333,-6.407892215e-06
0.01447916667,-6.664115517e-06
0.0145,-6.848677003e-06
0.01452083333,-6.912991921e-06
0.01454166667,-6.904563179e-06
0.0145625,-6.877383385e-06
0.01458333333,-6.888626103e-06
0.01460416667,-6.928453331e-06
0.014625,-7.009412911e-06
0.01464583333,-7.042795005e-06
0.01466666667,-7.045631264e-06
0.0146875,-6.964943168e-06
0.01470833333,-6.842278253e-06
0.01472916667,-6.702607152e-06
0.01475,-6.576783107e-06
0.01477083333,-6.46493163e-06
0.01479166667,-6.36251616e-06
0.0148125,-6.265328921e-06
0.01483333333,-6.129308986e-06
0.01485416667,-5.900157248e-06
0.014875,-5.591398804e-06
0.01489583333,-5.281508038e-06
0.01491666667,-4.97267456e-06
0.0149375,-4.713325325e-06
0.01495833333,-4.524528777e-06
0.01497916667,-4.33560399e-06
0.015,-4.132791219e-06
0.01502083333,-3.815485798e-06
0.01504166667,-3.42478188e-06
0.0150625,-2.984344064e-06
0.01508333333,-2.523296189e-06
0.01510416667,-2.066436309e-06
0.015125,-1.676869374e-06
0.01514583333,-1.324950063e-06
0.01516666667,-9.999912436e-07
0.0151875,-6.653089031e-07
0.01520833333,-3.285931598e-07
0.01522916667,3.19744089e-08
0.01525,3.955226759e-07
0.01527083333,8.07811773e-07
0.01529166667,1.222241622e-06
0.0153125,1.624652441e-06
0.01533333333,2.007086323e-06
0.01535416667,2.393119075e-06
0.015375,2.716982408e-06
0.01539583333,3.138799457e-06
0.01541666667,3.580405291e-06
0.0154375,4.027972409e-06
0.01545833333,4.434385119e-06
0.01547916667,4.75682964e-06
0.0155,4.987330158e-06
0.01552083333,5.15391821e-06
0.01554166667,5.347312708e-06
0.0155625,5.588816748e-06
0.01558333333,5.883432095e-06
0.01560416667,6.214251698e-06
0.015625,6.467863841e-06
0.01564583333,6.722361832e-06
0.01566666667,6.908337582e-06
0.0156875,7.072690551e-06
0.01570833333,7.246176665e-06
0.01572916667,7.421246664e-06
0.01575,7.543996162e-06
0.01577083333,7.603777703e-06
0.01579166667,7.61796673e-06
0.0158125,7.593269856e-06
0.01583333333,7.623021247e-06
0.01585416667,7.658068171e-06
0.015875,7.710401405e-06
0.01589583333,7.730243851e-06
0.01591666667,7.647287021e-06
0.0159375,7.529093182e-06
0.01595833333,7.325604656e-06
0.01597916667,7.176245617e-06
0.016,7.034003829e-06
0.01602083333,6.928525181e-06
0.01604166667,6.798047252e-06
0.0160625,6.655078323e-06
0.01608333333,6.418811154e-06
0.01610416667,6.076235422e-06
0.016125,5.72473482e-06
0.01614583333,5.39194707e-06
0.01616666667,5.131319085e-06
0.0161875,4.901656666e-06
0.01620833333,4.676145636e-06
0.01622916667,4.443064427e-06
0.01625,4.065801932e-06
0.01627083333,3.621454653e-06
0.01629166667,3.057220056e-06
0.0163125,2.544228892e-06
0.01633333333,2.09596783e-06
0.01635416667,1.764772719e-06
0.016375,1.479360208e-06
0.01639583333,1.168197628e-06
0.01641666667,8.184270541e-07
0.0164375,3.775220421e-07
0.01645833333,-1.113439865e-07
0.01647916667,-6.962017665e-07
0.0165,-1.182564802e-06
0.01652083333,-1.579865625e-06
0.01654166667,-1.935821274e-06
0.0165625,-2.249304316e-06
0.01658333333,-2.652847343e-06
0.01660416667,-3.037371926e-06
0.016625,-3.560834102e-06
0.01664583333,-4.053359135e-06
0.01666666667,-4.531654668e-06
0.0166875,-4.926167549e-06
0.01670833333,-5.188975138e-06
0.01672916667,-5.44581053e-06
0.01675,-5.637197773e-06
0.01677083333,-5.868860171e-06
0.01679166667,-6.239064078e-06
0.0168125,-6.651749118e-06
0.01683333333,-7.035709586e-06
0.01685416667,-7.358740731e-06
0.016875,-7.53230097e-06
0.01689583333,-7.556094715e-06
0.01691666667,-7.609253771e-06
0.0169375,-7.67129859e-06
0.01695833333,-7.918029041e-06
0.01697916667,-8.222647011e-06
0.017,-8.577762856e-06
0.01702083333,-8.759362572e-06
0.01704166667,-8.767818144e-06
0.0170625,-8.63994228e-06
0.01708333333,-8.405697372e-06
0.01710416667,-8.236675967e-06
0.017125,-8.159627214e-06
0.01714583333,-8.173306924e-06
0.01716666667,-8.236758731e-06
0.0171875,-8.182977581e-06
0.01720833333,-8.047537449e-06
0.01722916667,-7.777824067e-06
0.01725,-7.483538411e-06
0.01727083333,-7.213439858e-06
0.01729166667,-7.026095318e-06
0.0173125,-6.917593964e-06
0.01733333333,-6.822572232e-06
0.01735416667,-6.66385904e-06
0.017375,-6.346772352e-06
0.01739583333,-5.902892553e-06
0.01741666667,-5.317292107e-06
0.0174375,-4.702431397e-06
0.01745833333,-4.208011433e-06
0.01747916667,-3.820028269e-06
0.0175,-3.548433142e-06
0.01752083333,-3.422746659e-06
0.01754166667,-3.160682127e-06
0.0175625,-2.7252363e-06
0.01758333333,-2.155071797e-06
0.01760416667,-1.502442842e-06
0.017625,-8.217926961e-07
0.01764583333,-3.453824604e-07
0.01766666667,-5.609280151e-09
0.0176875,3.025515412e-07
0.01770833333,6.513017183e-07
0.01772916667,1.138056177e-06
0.01775,1.728572784e-06
0.01777083333,2.387235327e-06
0.01779166667,2.89418449e-06
0.0178125,3.389415042e-06
0.01783333333,3.727130206e-06
0.01785416667,4.11955989e-06
0.017875,4.470234217e-06
0.01789583333,4.913129487e-06
0.01791666667,5.38063523e-06
0.0179375,5.874472208e-06
0.01795833333,6.38445681e-06
0.01797916667,6.869336175e-06
0.018,7.277140867e-06
0.01802083333,7.561448911e-06
0.01804166667,7.68774953e-06
0.0180625,7.901083336e-06
0.01808333333,8.039765817e-06
0.01810416667,8.288383469e-06
0.018125,8.584995157e-06
0.01814583333,8.950413758e-06
0.01816666667,9.335629329e-06
0.0181875,9.573263014e-06
0.01820833333,9.69717621e-06
0.01822916667,9.738639164e-06
0.01825,9.778384083e-06
0.01827083333,9.772686099e-06
0.01829166667,9.878943274e-06
0.0183125,9.938295079e-06
0.01833333333,1.000609245e-05
0.01835416667,1.009381413e-05
0.018375,9.971099644e-06
0.01839583333,9.855675671e-06
0.01841666667,9.644551028e-06
0.0184375,9.368596693e-06
0.01845833333,9.117122318e-06
0.01847916667,8.8970055e-06
0.0185,8.836657798e-06
0.01852083333,8.728574358e-06
0.01854166667,8.599718967e-06
0.0185625,8.275127584e-06
0.01858333333,7.949806786e-06
0.01860416667,7.522025044e-06
0.018625,7.042819107e-06
0.01864583333,6.716034477e-06
0.01866666667,6.394851425e-06
0.0186875,6.141351605e-06
0.01870833333,5.761794e-06
0.01872916667,5.366887763e-06
0.01875,4.804956006e-06
0.01877083333,4.230520062e-06
0.01879166667,3.655062983e-06
0.0188125,3.046242227e-06
0.01883333333,2.643196922e-06
0.01885416667,2.205292276e-06
0.018875,1.819415843e-06
0.01889583333,1.395688287e-06
0.01891666667,8.639500493e-07
0.0189375,3.390164807e-07
0.01895833333,-3.194583087e-07
0.01897916667,-9.476985952e-07
0.019,-1.550879119e-06
0.01902083333,-2.00237173e-06
0.01904166667,-2.459480356e-06
0.0190625,-2.873561243e-06
0.01908333333,-3.300541266e-06
0.01910416667,-3.800016657e-06
0.019125,-4.37483277e-06
0.01914583333,-4.966328106e-06
0.01916666667,-5.441799203e-06
0.0191875,-5.873825558e-06
0.01920833333,-6.232684427e-06
0.01922916667,-6.442387075e-06
0.01925,-6.885236871e-06
0.01927083333,-7.366215868e-06
0.01929166667,-7.957420166e-06
0.0193125,-8.558155969e-06
0.01933333333,-8.931742741e-06
0.01935416667,-9.069002772e-06
0.019375,-9.054461771e-06
0.01939583333,-8.985730346e-06
0.01941666667,-9.043516911e-06
0.0194375,-9.35265416e-06
0.01945833333,-9.804334695e-06
0.01947916667,-1.026605969e-05
0.0195,-1.056245583e-05
0.01952083333,-1.058039652e-05
0.01954166667,-1.050990977e-05
0.0195625,-1.03233142e-05
0.01958333333,-1.025496113e-05
0.01960416667,-1.026186783e-05
0.019625,-1.035654532e-05
0.01964583333,-1.041646556e-05
0.01966666667,-1.031420925e-05
0.0196875,-1.020575837e-05
0.01970833333,-9.880328435e-06
0.01972916667,-9.538737686e-06
0.01975,-9.261724699e-06
0.01977083333,-8.963927939e-06
0.01979166667,-8.997178156e-06
0.0198125,-8.958357284e-06
0.01983333333,-8.893869563e-06
0.01985416667,-8.675482604e-06
0.019875,-8.138849807e-06
0.01989583333,-7.370978437e-06
0.01991666667,-6.560193015e-06
0.0199375,-5.835478987e-06
0.01995833333,-5.369951396e-06
0.01997916667,-5.354801488e-06
0.02,-5.753441656e-06
0.02002083333,-5.590563433e-06
0.02004166667,-5.192671779e-06
0.0200625,-4.51517235e-06
0.02008333333,-3.735722657e-06
0.02010416667,-3.010197361e-06
0.020125,-2.496739171e-06
0.02014583333,-2.027521987e-06
0.02016666667,-1.716523229e-06
0.0201875,-1.167172968e-06
0.02020833333,-3.945274329e-07
0.02022916667,3.839964791e-07
0.02025,1.26022428e-06
0.02027083333,1.910547326e-06
0.02029166667,2.356556479e-06
0.0203125,2.696541742e-06
0.02033333333,2.917701067e-06
0.02035416667,3.295366241e-06
0.020375,3.737445923e-06
0.02039583333,4.380659902e-06
0.02041666667,4.887695923e-06
0.0204375,5.537466222e-06
0.02045833333,6.100037808e-06
0.02047916667,6.480001957e-06
0.0205,6.789987765e-06
0.02052083333,7.055657079e-06
0.02054166667,7.430125606e-06
0.0205625,7.87443787e-06
0.02058333333,8.383970453e-06
0.02060416667,8.835537301e-06
0.020625,9.234812751e-06
0.02064583333,9.526154827e-06
0.02066666667,9.513540135e-06
0.0206875,9.785561815e-06
0.02070833333,9.939672964e-06
0.02072916667,1.039005292e-05
0.02075,1.085254371e-05
0.02077083333,1.118053297e-05
0.02079166667,1.136187802e-05
0.0208125,1.141196299e-05
0.02083333333,1.144466751e-05
0.02085416667,1.15598059e-05
0.020875,1.173467354e-05
0.02089583333,1.196164158e-05
0.02091666667,1.207387504e-05
0.0209375,1.222951687e-05
0.02095833333,1.228102883e-05
0.02097916667,1.215016528e-05
0.021,1.186991631e-05
0.02102083333,1.156439885e-05
0.02104166667,1.122985486e-05
0.0210625,1.109216373e-05
0.02108333333,1.083180268e-05
0.02110416667,1.05206118e-05
0.021125,1.021087792e-05
0.02114583333,9.632801266e-06
0.02116666667,9.011154361e-06
0.0211875,8.17246837e-06
0.02120833333,7.523978638e-06
0.02122916667,7.117399036e-06
0.02125,6.855852462e-06
0.02127083333,6.890850273e-06
0.02129166667,6.733653208e-06
0.0213125,6.44570855e-06
0.02133333333,5.996697837e-06
0.02135416667,5.568301276e-06
0.021375,5.051873813e-06
0.02139583333,4.64711411e-06
0.02141666667,4.091049959e-06
0.0214375,3.739299018e-06
0.02145833333,3.247798531e-06
0.02147916667,2.690993369e-06
0.0215,2.104399073e-06
0.02152083333,1.512305289e-06
0.02154166667,8.423387499e-07
0.0215625,2.5474219e-07
0.02158333333,-5.334811704e-07
0.02160416667,-1.20129539e-06
0.021625,-1.874645022e-06
0.02164583333,-2.302135272e-06
0.02166666667,-2.838891987e-06
0.0216875,-3.092293809e-06
0.02170833333,-3.558784101e-06
0.02172916667,-3.935366749e-06
0.02175,-4.484031706e-06
0.02177083333,-4.954835276e-06
0.02179166667,-5.193639481e-06
0.0218125,-5.243353371e-06
0.02183333333,-5.304907972e-06
0.02185416667,-5.277672244e-06
0.021875,-5.548266017e-06
0.02189583333,-5.898961717e-06
0.02191666667,-6.445116924e-06
0.0219375,-7.35458616e-06
0.02195833333,-8.084013643e-06
0.02197916667,-8.836133929e-06
0.022,-9.718728506e-06
0.02202083333,-1.020156378e-05
0.02204166667,-1.0744875e-05
0.0220625,-1.11663403e-05
0.02208333333,-1.138680182e-05
0.02210416667,-1.161383261e-05
0.022125,-1.193979278e-05
0.02214583333,-1.176422484e-05
0.02216666667,-1.19686274e-05
0.0221875,-1.177071408e-05
0.02220833333,-1.152816913e-05
0.02222916667,-1.093433912e-05
0.02225,-1.029212399e-05
0.02227083333,-9.964144738e-06
0.02229166667,-1.030880776e-05
0.0223125,-1.094582058e-05
0.02233333333,-1.155270911e-05
0.02235416667,-1.159667409e-05
0.022375,-1.109685945e-05
0.02239583333,-9.745665011e-06
0.02241666667,-8.696175428e-06
0.0224375,-8.266256373e-06
0.02245833333,-8.741662896e-06
0.02247916667,-9.682529708e-06
0.0225,-1.045478348e-05
0.02252083333,-1.039515337e-05
0.02254166667,-9.720042726e-06
0.0225625,-8.597151464e-06
0.02258333333,-7.532364179e-06
0.02260416667,-6.605240742e-06
0.022625,-6.036309969e-06
0.02264583333,-5.311113455e-06
0.02266666667,-4.34687081e-06
0.0226875,-3.247628001e-06
0.02270833333,-2.55361465e-06
0.02272916667,-1.850576837e-06
0.02275,-1.358466989e-06
0.02277083333,-6.773253745e-07
0.02279166667,-1.415685347e-09
0.0228125,4.289351523e-07
0.02283333333,5.921982051e-07
0.02285416667,4.938413554e-07
0.022875,-3.527100034e-08
0.02289583333,1.14888735e-07
0.02291666667,4.634175639e-07
0.0229375,1.288827207e-06
0.02295833333,1.956389951e-06
0.02297916667,2.467143759e-06
0.023,2.327118182e-06
0.02302083333,2.318578481e-06
0.02304166667,2.484420065e-06
0.0230625,3.428550599e-06
0.02308333333,4.492115295e-06
0.02310416667,5.373584827e-06
0.023125,5.678856724e-06
0.02314583333,5.806435183e-06
0.02316666667,5.632306966e-06
0.0231875,5.435007552e-06
0.02320833333,5.90977379e-06
0.02322916667,6.323262824e-06
0.02325,6.685256267e-06
0.02327083333,6.87865122e-06
0.02329166667,6.779662272e-06
0.0233125,6.902498171e-06
0.02333333333,7.084462595e-06
0.02335416667,7.6830338e-06
0.023375,8.148638699e-06
0.02339583333,8.66724713e-06
0.02341666667,8.664280358e-06
0.0234375,8.709911526e-06
0.02345833333,8.740901649e-06
0.02347916667,8.621841516e-06
0.0235,8.200483535e-06
0.02352083333,6.981925708e-06
0.02354166667,5.048333605e-06
0.0235625,3.399478828e-06
0.02358333333,1.97999907e-06
0.02360416667,1.560362307e-06
0.023625,1.977443844e-06
0.02364583333,2.766618309e-06
0.02366666667,3.046392067e-06
0.0236875,3.057426056e-06
0.02370833333,1.563233582e-06
0.02372916667,3.155273589e-07
0.02375,-9.519530977e-07
0.02377083333,-1.317421265e-06
0.02379166667,-1.657529992e-06
0.0238125,-1.397053893e-06
0.02383333333,-2.524332331e-06
0.02385416667,-3.657761454e-06
0.023875,-4.98719055e-06
0.02389583333,-5.935727586e-06
0.02391666667,-6.316047802e-06
0.0239375,-6.229783594e-06
0.02395833333,-6.411816685e-06
0.02397916667,-6.808015769e-06
0.024,-7.84562053e-06
0.02402083333,-9.027725355e-06
0.02404166667,-9.977839909e-06
0.0240625,-1.065213473e-05
0.02408333333,-1.134421291e-05
0.02410416667,-1.158531541e-05
0.024125,-1.222514584e-05
0.02414583333,-1.295875882e-05
0.02416666667,-1.42790359e-05
0.0241875,-1.561198951e-05
0.02420833333,-1.732324017e-05
0.02422916667,-1.885806341e-05
0.02425,-2.007753028e-05
0.02427083333,-2.043719724e-05
0.02429166667,-2.015240534e-05
0.0243125,-1.942258314e-05
0.02433333333,-1.886450809e-05
0.02435416667,-1.813764175e-05
0.024375,-1.795052594e-05
0.02439583333,-1.748667273e-05
0.02441666667,-1.737809725e-05
0.0244375,-1.704429815e-05
0.02445833333,-1.722260822e-05
0.02447916667,-1.751745367e-05
0.0245,-1.834263821e-05
0.02452083333,-1.878576586e-05
0.02454166667,-1.863838406e-05
0.0245625,-1.857685857e-05
0.02458333333,-1.852251626e-05
0.02460416667,-1.821474143e-05
0.024625,-1.797937693e-05
0.02464583333,-1.744614929e-05
0.02466666667,-1.709591925e-05
0.0246875,-1.662658724e-05
0.02470833333,-1.703252747e-05
0.02472916667,-1.772944233e-05
0.02475,-1.912580774e-05
0.02477083333,-1.978937689e-05
0.02479166667,-2.055050572e-05
0.0248125,-2.108493572e-05
0.02483333333,-2.198393304e-05
0.02485416667,-2.328258597e-05
0.024875,-2.483947355e-05
0.02489583333,-2.530293386e-05
0.02491666667,-2.425537969e-05
0.0249375,-2.200644667e-05
0.02495833333,-1.903731027e-05
0.02497916667,-1.587794941e-05
0.025,-1.362489547e-05
0.02502083333,-1.108759352e-05
0.02504166667,-9.353389032e-06
0.0250625,-7.715379979e-06
0.02508333333,-6.049065632e-06
0.02510416667,-4.408052519e-06
0.025125,-3.587273113e-06
0.02514583333,-2.185551693e-06
0.02516666667,-1.802233101e-06
0.0251875,-1.646118562e-06
0.02520833333,-1.782427603e-06
0.02522916667,-2.472786491e-06
0.02525,-2.664034582e-06
0.02527083333,-1.558526264e-06
0.02529166667,-1.501207407e-07
0.0253125,8.429694844e-07
0.02533333333,1.162635044e-06
0.02535416667,7.782043667e-07
0.025375,-3.236896191e-07
0.02539583333,-5.757146937e-07
0.02541666667,4.573153092e-07
0.0254375,2.202020596e-06
0.02545833333,4.676802291e-06
0.02547916667,6.328680229e-06
0.0255,6.972524261e-06
0.02552083333,7.357201412e-06
0.02554166667,8.186035302e-06
0.0255625,9.02845477e-06
0.02558333333,1.068048914e-05
0.02560416667,1.222740593e-05
0.025625,1.239680751e-05
0.02564583333,1.2793319e-05
0.02566666667,1.296198388e-05
0.0256875,1.380528738e-05
0.02570833333,1.442782923e-05
0.02572916667,1.456095742e-05
0.02575,1.40809916e-05
0.02577083333,1.402781709e-05
0.02579166667,1.402620728e-05
0.0258125,1.541737402e-05
0.02583333333,1.71014326e-05
0.02585416667,1.979997251e-05
0.025875,2.145591316e-05
0.02589583333,2.333698467e-05
0.02591666667,2.34629133e-05
0.0259375,2.323503577e-05
0.02595833333,2.340564424e-05
0.02597916667,2.320386193e-05
0.026,2.134287934e-05
0.02602083333,2.033872624e-05
0.02604166667,1.885695747e-05
0.0260625,1.726046685e-05
0.02608333333,1.628163591e-05
0.02610416667,1.637815876e-05
0.026125,1.74230172e-05
0.02614583333,1.881440767e-05
0.02616666667,2.029317693e-05
0.0261875,2.087971006e-05
0.02620833333,2.023326306e-05
0.02622916667,1.861901001e-05
0.02625,1.760500163e-05
0.02627083333,1.688489647e-05
0.02629166667,1.736261584e-05
0.0263125,1.683358641e-05
0.02633333333,1.585701284e-05
0.02635416667,1.301436805e-05
0.026375,1.037564562e-05
0.02639583333,8.345935385e-06
0.02641666667,8.128516129e-06
0.0264375,7.782538887e-06
0.02645833333,7.972696039e-06
0.02647916667,6.341935205e-06
0.0265,4.382543921e-06
0.02652083333,1.945877329e-06
0.02654166667,4.798719146e-07
0.0265625,-1.810549293e-07
0.02658333333,-1.111179472e-06
0.02660416667,-2.103211955e-06
0.026625,-4.358372735e-06
0.02664583333,-6.381500498e-06
0.02666666667,-7.816835023e-06
0.0266875,-7.93734398e-06
0.02670833333,-8.582130249e-06
0.02672916667,-9.838808182e-06
0.02675,-1.217232784e-05
0.02677083333,-1.384665848e-05
0.02679166667,-1.3512019e-05
0.0268125,-1.089319903e-05
0.02683333333,-8.374337995e-06
0.02685416667,-6.056642633e-06
0.026875,-6.317794032e-06
0.02689583333,-7.558855032e-06
0.02691666667,-9.613926522e-06
0.0269375,-1.063500804e-05
0.02695833333,-1.109929872e-05
0.02697916667,-1.288033673e-05
0.027,-1.756231359e-05
0.02702083333,-2.247449629e-05
0.02704166667,-2.560136454e-05
0.0270625,-2.729693733e-05
0.02708333333,-2.53768776e-05
0.02710416667,-2.302776556e-05
0.027125,-2.058677455e-05
0.02714583333,-2.020589272e-05
0.02716666667,-2.147314081e-05
0.0271875,-2.306242095e-05
0.02720833333,-2.476266309e-05
0.02722916667,-2.64187729e-05
0.02725,-2.700197365e-05
0.02727083333,-2.792802297e-05
0.02729166667,-2.913718345e-05
0.0273125,-3.196678881e-05
0.02733333333,-3.604154335e-05
0.02735416667,-4.121542952e-05
0.027375,-4.502892989e-05
0.02739583333,-4.693579831e-05
0.02741666667,-4.586083014e-05
0.0274375,-4.3147822e-05
0.02745833333,-4.006629024e-05
0.02747916667,-3.891886445e-05
0.0275,-3.740632383e-05
0.02752083333,-3.657529305e-05
0.02754166667,-3.340251715e-05
0.0275625,-2.92412933e-05
0.02758333333,-2.500055598e-05
0.02760416667,-2.237521403e-05
0.027625,-2.076381315e-05
0.02764583333,-1.710693869e-05
0.02766666667,-1.237036213e-05
0.0276875,-6.706171462e-06
0.02770833333,-3.413624199e-06
0.02772916667,-3.987917808e-06
0.02775,-7.223575722e-06
0.02777083333,-1.11869158e-05
0.02779166667,-1.272576719e-05
0.0278125,-1.147296734e-05
0.02783333333,-8.350991266e-06
0.02785416667,-8.509116924e-06
0.027875,-1.497934227e-05
0.02789583333,-2.50440844e-05
0.02791666667,-3.49241709e-05
0.0279375,-3.906825805e-05
0.02795833333,-3.717668369e-05
0.02797916667,-3.380635826e-05
0.028,-3.260417725e-05
0.02802083333,-3.120833935e-05
0.02804166667,-3.221830775e-05
0.0280625,-3.019728865e-05
0.02808333333,-2.466582737e-05
0.02810416667,-1.820634679e-05
0.028125,-1.152745972e-05
0.02814583333,-8.497547242e-06
0.02816666667,-8.112452633e-06
0.0281875,-9.085209058e-06
0.02820833333,-1.311103733e-05
0.02822916667,-1.985441122e-05
0.02825,-2.972648326e-05
0.02827083333,-3.76395692e-05
0.02829166667,-4.115934644e-05
0.0283125,-3.606579412e-05
0.02833333333,-2.295756167e-05
0.02835416667,-8.218268704e-06
0.028375,5.351605978e-06
0.02839583333,1.061955118e-05
0.02841666667,8.783637895e-06
0.0284375,1.264885213e-06
0.02845833333,-5.825464996e-06
0.02847916667,-8.662582331e-06
0.0285,-6.704992757e-06
0.02852083333,-5.054676876e-06
0.02854166667,-9.042391866e-06
0.0285625,-1.80008974e-05
0.02858333333,-3.019717769e-05
0.02860416667,-4.275058382e-05
0.028625,-4.87741745e-05
0.02864583333,-4.725496183e-05
0.02866666667,-4.208852988e-05
0.0286875,-4.0666313e-05
0.02870833333,-4.748990978e-05
0.02872916667,-6.356571976e-05
0.02875,-8.279938629e-05
0.02877083333,-9.16458157e-05
0.02879166667,-9.336522635e-05
0.0288125,-8.52765952e-05
0.02883333333,-7.81486815e-05
0.02885416667,-7.721459406e-05
0.028875,-8.349840937e-05
0.02889583333,-9.259527724e-05
0.02891666667,-9.822791617e-05
0.0289375,-9.759896056e-05
0.02895833333,-9.107209189e-05
0.02897916667,-9.408418555e-05
0.029,-0.0001051571016
0.02902083333,-0.000114582057
0.02904166667,-0.0001236277749
0.0290625,-0.0001202712228
0.02908333333,-0.0001156186845
0.02910416667,-0.0001113702165
0.029125,-0.0001233907969
0.02914583333,-0.000140682343
0.02916666667,-0.0001609001047
0.0291875,-0.0001780571183
0.02920833333,-0.0001869034895
0.02922916667,-0.0001944502874
0.02925,-0.0002001280081
0.02927083333,-0.0002033141063
0.02929166667,-0.0001996806386
0.0293125,-0.00018586847
0.02933333333,-0.0001655599335
0.02935416667,-0.0001479625498
0.029375,-0.0001493034943
0.02939583333,-0.0001624148717
0.02941666667,-0.0001768904913
0.0294375,-0.000185514582
0.02945833333,-0.0001892552827
0.02947916667,-0.0001990663441
0.0295,-0.0002131213987
0.02952083333,-0.0002317791077
0.02954166667,-0.0002474240318
0.0295625,-0.0002350182913
0.02958333333,-0.0001806622313
0.02960416667,-0.0001083681709
0.029625,-4.876086678e-05
0.02964583333,-3.751927943e-05
0.02966666667,-6.438524724e-05
0.0296875,-0.0001261596917
0.02970833333,-0.0001717309933
0.02972916667,-0.0002018018859
0.02975,-0.0002035009093
0.02977083333,-0.000206439363
0.02979166667,-0.0002138743585
0.0298125,-0.0002248722158
0.02983333333,-0.0002282634523
0.02985416667,-0.0002389477013
0.029875,-0.0002764091769
0.02989583333,-0.0003396787215
0.02991666667,-0.0004192840133
0.0299375,-0.0005006694701
0.02995833333,-0.0004886801471
0.02997916667,-0.000447429833
0.03,0.0002197697613
0.03002083333,0.0002631969401
0.03004166667,0.0002750771237
0.0300625,0.0001929576101
0.03008333333,0.0001147095609
0.03010416667,5.029146268e-05
0.030125,1.619631803e-05
0.03014583333,-5.284255167e-07
0.03016666667,3.140409717e-06
0.0301875,-2.324542584e-05
0.03020833333,-2.788241545e-05
0.03022916667,-3.267987267e-05
0.03025,-2.455378853e-05
0.03027083333,-5.474455975e-05
0.03029166667,-9.547770605e-05
0.0303125,-0.0001559528173
0.03033333333,-0.0001809747773
0.03035416667,-0.0001628072787
0.030375,-7.962509699e-05
0.03039583333,7.753091268e-06
0.03041666667,8.002587128e-05
0.0304375,0.000107583779
0.03045833333,9.532133117e-05
0.03047916667,8.328687545e-05
0.0305,7.193732745e-05
0.03052083333,6.923190085e-05
0.03054166667,5.856806092e-05
0.0305625,5.394898471e-05
0.03058333333,3.424387978e-05
0.03060416667,2.542299444e-05
0.030625,1.749787589e-05
0.03064583333,5.657886504e-05
0.03066666667,7.968760474e-05
0.0306875,0.0001192424097
0.03070833333,0.0001313933026
0.03072916667,0.0001511547307
0.03075,0.0001536280179
0.03077083333,0.0001567941654
0.03079166667,0.0001591119799
0.0308125,0.0001448780968
0.03083333333,0.000138504518
0.03085416667,0.0001165929061
0.030875,0.000121601297
0.03089583333,0.000133630514
0.03091666667,0.0001556602074
0.0309375,0.000157762217
0.03095833333,0.0001624387369
0.03097916667,0.0001478353952
0.031,0.0001486503024
0.03102083333,0.0001380146423
0.03104166667,0.0001624452125
0.0310625,0.0001497467601
0.03108333333,0.000164473764
0.03110416667,0.0001570315508
0.031125,0.0001643863216
0.03114583333,0.0001577735529
0.03116666667,0.0001838793396
0.0311875,0.0002003138361
0.03120833333,0.0001940466609
0.03122916667,0.0002127322368
0.03125,0.0001795377175
0.03127083333,0.0001813659619
0.03129166667,0.0001704741735
0.0313125,0.0001857729076
0.03133333333,0.0001869511616
0.03135416667,0.000201390023
0.031375,0.000186365869
0.03139583333,0.0001767650829
0.03141666667,0.0001564703707
0.0314375,0.0001569707965
0.03145833333,0.0001406027441
0.03147916667,0.0001581193792
0.0315,0.0001453289733
0.03152083333,0.0001425513183
0.03154166667,0.000112850088
0.0315625,8.689927927e-05
0.03158333333,7.814957644e-05
0.03160416667,8.729562251e-05
0.031625,0.0001256789692
0.03164583333,0.0001529053989
0.03166666667,0.0001836031297
0.0316875,0.0001738900464
0.03170833333,0.000169891413
0.03172916667,0.0001351750398
0.03175,0.0001249505731
0.03177083333,9.653296729e-05
0.03179166667,0.0001060218492
0.0318125,8.703541243e-05
0.03183333333,0.0001049589991
0.03185416667,9.643739031e-05
0.031875,0.0001144552079
0.03189583333,0.0001078862842
0.03191666667,0.0001118195505
0.0319375,9.465313633e-05
0.03195833333,8.260204049e-05
0.03197916667,7.271090726e-05
0.032,6.307908188e-05
0.03202083333,6.240815856e-05
0.03204166667,5.236211655e-05
0.0320625,4.675865421e-05
0.03208333333,-5.396250344e-07
0.03210416667,-1.734383841e-05
0.032125,-5.41624795e-05
0.03214583333,-5.001244426e-05
0.03216666667,-7.210338663e-05
0.0321875,-6.524920173e-05
0.03220833333,-8.775951574e-05
0.03222916667,-9.321542166e-05
0.03225,-0.0001255764219
0.03227083333,-0.0001216399105
0.03229166667,-0.0001197458841
0.0323125,-0.0001140999957
0.03233333333,-7.832003757e-05
0.03235416667,-7.535157783e-05
0.032375,-8.963605069e-05
0.03239583333,-8.30685749e-05
0.03241666667,-7.901334902e-05
0.0324375,-8.485431317e-05
0.03245833333,-7.759903383e-05
0.03247916667,-8.440313104e-05
0.0325,-7.189264579e-05
0.03252083333,-8.95075791e-05
0.03254166667,-6.693434261e-05
0.0325625,-8.531573258e-05
0.03258333333,-7.131350867e-05
0.03260416667,-9.434876847e-05
0.032625,-0.0001077601773
0.03264583333,-0.0001465747482
0.03266666667,-0.000144448728
0.0326875,-0.0001687804615
0.03270833333,-0.0001605236612
0.03272916667,-0.000170315092
0.03275,-0.0001729255018
0.03277083333,-0.0001743662433
0.03279166667,-0.0001791118411
0.0328125,-0.0001666156459
0.03283333333,-0.0001826170774
0.03285416667,-0.0001562170801
0.032875,-0.0001581493125
0.03289583333,-0.0001340889867
0.03291666667,-0.0001344575576
0.0329375,-0.0001159278327
0.03295833333,-0.0001415133302
0.03297916667,-0.0001217541576
0.033,-0.0001305034966
0.03302083333,-0.0001262083388
0.03304166667,-0.0001251179201
0.0330625,-0.0001053435408
0.03308333333,-9.753695485e-05
0.03310416667,-8.500002878e-05
0.033125,-7.474976155e-05
0.03314583333,-6.261628005e-05
0.03316666667,-5.837214849e-05
0.0331875,-5.612869427e-05
0.03320833333,-5.303401485e-05
0.03322916667,-7.221035776e-05
0.03325,-7.283676678e-05
0.03327083333,-9.09771843e-05
0.03329166667,-8.782446093e-05
0.0333125,-9.973560373e-05
0.03333333333,-9.142346971e-05
0.03335416667,-0.0001303726312
0.033375,-0.0001312431123
0.03339583333,-0.0001498455968
0.03341666667,-0.0001354303095
0.0334375,-0.0001130490855
0.03345833333,-9.136962035e-05
0.03347916667,-6.47538036e-05
0.0335,-3.698742512e-05
0.03352083333,-1.535647425e-05
0.03354166667,6.500873496e-06
0.0335625,2.059798135e-05
0.03358333333,1.69401319e-05
0.03360416667,8.779989003e-07
0.033625,-1.557409632e-05
0.03364583333,-1.419254022e-05
0.03366666667,-1.414113103e-05
0.0336875,-1.139503183e-06
0.03370833333,1.57987397e-05
0.03372916667,1.799351958e-05
0.03375,9.194188351e-06
0.03377083333,1.386542044e-05
0.03379166667,1.381654329e-06
0.0338125,-7.209393516e-06
0.03383333333,-1.015689486e-05
0.03385416667,2.076607416e-06
0.033875,-4.198579973e-06
0.03389583333,-5.973848602e-06
0.03391666667,-1.927122412e-06
0.0339375,-1.67331018e-05
0.03395833333,-2.5932879e-05
0.03397916667,-3.766149894e-05
0.034,-5.71593846e-05
0.03402083333,-7.494066813e-05
0.03404166667,-9.021673759e-05
0.0340625,-0.0001015472371
0.03408333333,-8.917755622e-05
0.03410416667,-7.572802861e-05
0.034125,-2.818733992e-05
0.03414583333,-1.364635864e-05
0.03416666667,3.905659014e-06
0.0341875,2.131928341e-05
0.03420833333,3.178312227e-07
0.03422916667,-2.219557609e-05
0.03425,-2.816752385e-05
0.03427083333,-3.747118535e-05
0.03429166667,-1.606495971e-05
0.0343125,-1.606412479e-05
0.03433333333,2.179831426e-06
0.03435416667,1.793299271e-05
0.034375,2.08178335e-06
0.03439583333,1.131808403e-05
0.03441666667,-1.727814379e-05
0.0344375,-1.385855467e-05
0.03445833333,-1.506775334e-05
0.03447916667,1.73857843e-05
0.0345,3.431786899e-05
0.03452083333,5.449068703e-05
0.03454166667,5.602855526e-05
0.0345625,3.711942918e-05
0.03458333333,9.738761946e-06
0.03460416667,2.467477316e-06
0.034625,-3.347294114e-05
0.03464583333,-3.707775249e-05
0.03466666667,-2.55795203e-05
0.0346875,-1.853063077e-05
0.03470833333,5.000540114e-06
0.03472916667,2.419997327e-05
0.03475,4.659449405e-05
0.03477083333,5.449296441e-05
0.03479166667,7.918121992e-05
0.0348125,7.571452443e-05
0.03483333333,0.0001046523685
0.03485416667,0.0001030925923
0.034875,0.000126291794
0.03489583333,0.0001342158794
0.03491666667,0.0001367404766
0.0349375,0.0001164278365
0.03495833333,0.0001138146908
0.03497916667,8.712029376e-05
0.035,7.803273911e-05
0.03502083333,9.384879377e-05
0.03504166667,7.204309804e-05
0.0350625,8.719819016e-05
0.03508333333,7.422592898e-05
0.03510416667,9.923025209e-05
0.035125,0.0001017324903
0.03514583333,0.0001084677206
0.03516666667,0.0001194487922
0.0351875,0.0001493512682
0.03520833333,0.0001629297331
0.03522916667,0.0001898564078
0.03525,0.0001905860554
0.03527083333,0.0001906461839
0.03529166667,0.0001762808679
0.0353125,0.0001888596453
0.03533333333,0.0002154375252
0.03535416667,0.000239180983
0.035375,0.0002626964997
0.03539583333,0.0002757525945
0.03541666667,0.0002979590499
0.0354375,0.0003204241511
0.03545833333,0.0003327129525
0.03547916667,0.0003417950356
0.0355,0.0003717116779
0.03552083333,0.0003620350908
0.03554166667,0.0003412487567
0.0355625,0.0003300410463
0.03558333333,0.000340785773
0.03560416667,0.0003300868557
0.035625,0.0003249522997
0.03564583333,0.000291837292
0.03566666667,0.0002970578789
0.0356875,0.0002768093836
0.03570833333,0.000291281729
0.03572916667,0.0002913984645
0.03575,0.000296677812
0.03577083333,0.0002956271055
0.03579166667,0.0002817164059
0.0358125,0.0002872043697
0.03583333333,0.0002814676845
0.03585416667,0.0002859137603
0.035875,0.0003038556606
0.03589583333,0.0003301369725
0.03591666667,0.0003380291455
0.0359375,0.000362146995
0.03595833333,0.0003449000069
0.03597916667,0.0003509310773
0.036,0.0003454944235
0.03602083333,0.0003404678428
0.03604166667,0.0003305841237
0.0360625,0.0003357738897
0.03608333333,0.0003468415234
0.03610416667,0.0003656577901
0.036125,0.0003803381696
0.03614583333,0.0004140796664
0.03616666667,0.000427475723
0.0361875,0.0004048643168
0.03620833333,0.0003920583404
0.03622916667,0.0004038783954
0.03625,0.000401625759
0.03627083333,0.0003923493205
0.03629166667,0.0004047525581
0.0363125,0.0003907383652
0.03633333333,0.000404008606
0.03635416667,0.0003676573397
0.036375,0.0003580135526
0.03639583333,0.0002989346103
0.03641666667,0.0002723614743
0.0364375,0.0002249748941
0.03645833333,0.0002051169722
0.03647916667,0.0002034365898
0.0365,0.0002221364412
0.03652083333,0.000217941677
0.03654166667,0.0002257446322
0.0365625,0.000217853114
0.03658333333,0.0002175275149
0.03660416667,0.00021845015
0.036625,0.0002539014677
0.03664583333,0.00030040415
0.03666666667,0.0003361208946
0.0366875,0.0003687170683
0.03670833333,0.000357134646
0.03672916667,0.000384502142
0.03675,0.0003751121985
0.03677083333,0.0003736546205
0.03679166667,0.0003413998056
0.0368125,0.0003485518973
0.03683333333,0.0003245028493
0.03685416667,0.0003144933726
0.036875,0.0002942127176
0.03689583333,0.0003328360908
0.03691666667,0.0003370623745
0.0369375,0.0003336805094
0.03695833333,0.0003162261273
0.03697916667,0.0003051000822
0.037,0.0002837946231
0.03702083333,0.0002841704409
0.03704166667,0.0003097380395
0.0370625,0.0003291184839
0.03708333333,0.0003405064635
0.03710416667,0.0002930677729
0.037125,0.0002978036064
0.03714583333,0.0002657219302
0.03716666667,0.0002714059956
0.0371875,0.0002648909867
0.03720833333,0.0002904258727
0.03722916667,0.0002895119542
0.03725,0.0003393193765
0.03727083333,0.0003500918974
0.03729166667,0.000391499605
0.0373125,0.0003938581503
0.03733333333,0.0004351355601
0.03735416667,0.0004296478292
0.037375,0.0004791570245
0.03739583333,0.0005095386296
0.03741666667,0.0004963163519
0.0374375,0.0005202714237
0.03745833333,0.0004908907576
0.03747916667,0.0005055858055
0.0375,0.0004351667012
0.03752083333,0.0004190288018
0.03754166667,0.0003754430509
0.0375625,0.0003977521264
0.03758333333,0.0003731414326
0.03760416667,0.0004078177735
0.037625,0.0003755100188
0.03764583333,0.0003727290896
0.03766666667,0.0003373315267
0.0376875,0.000348988804
0.03770833333,0.000393237744
0.03772916667,0.0004383052292
0.03775,0.0005154753453
0.03777083333,0.0005523877335
0.03779166667,0.0006349500036
0.0378125,0.000641222694
0.03783333333,0.0006816864479
0.03785416667,0.0006380012492
0.037875,0.0006563346251
0.03789583333,0.0006350263138
0.03791666667,0.0006790671032
0.0379375,0.0006826526951
0.03795833333,0.0007027965039
0.03797916667,0.0006681910018
0.038,0.0006323187845
0.03802083333,0.000589052157
0.03804166667,0.0005265208893
0.0380625,0.0005214390112
0.03808333333,0.0005200139713
0.03810416667,0.0005706918309
0.038125,0.0006103335763
0.03814583333,0.0006439856952
0.03816666667,0.0006653012242
0.0381875,0.0007033052389
0.03820833333,0.0006645235117
0.03822916667,0.0006826511235
0.03825,0.0006333903293
0.03827083333,0.0006814931985
0.03829166667,0.0007113205502
0.0383125,0.0007638230454
0.03833333333,0.0007998120855
0.03835416667,0.0008242443437
0.038375,0.0008590460056
0.03839583333,0.0008495799266
0.03841666667,0.0008546154713
0.0384375,0.0008709591348
0.03845833333,0.0009013034869
0.03847916667,0.000920155202
0.0385,0.0009518142324
0.03852083333,0.0009771441109
0.03854166667,0.001035206136
0.0385625,0.001057991642
0.03858333333,0.001109710895
0.03860416667,0.001077787485
0.038625,0.001114118262
0.03864583333,0.001113961567
0.03866666667,0.001166406786
0.0386875,0.001165082096
0.03870833333,0.001192914904
0.03872916667,0.001180815627
0.03875,0.001204243046
0.03877083333,0.001189468661
0.03879166667,0.001172490884
0.0388125,0.001150633674
0.03883333333,0.001094933366
0.03885416667,0.001084035612
0.038875,0.001030350337
0.03889583333,0.001018828363
0.03891666667,0.0009907134809
0.0389375,0.0009895352414
0.03895833333,0.0009515885613
0.03897916667,0.0009550425457
0.039,0.0009305289714
0.03902083333,0.0009727357537
0.03904166667,0.0009707623394
0.0390625,0.001054194174
0.03908333333,0.001067565638
0.03910416667,0.001103345305
0.039125,0.001116403611
0.03914583333,0.001143131172
0.03916666667,0.001177317579
0.0391875,0.00114671234
0.03920833333,0.001122465939
0.03922916667,0.00109135441
0.03925,0.001087769517
0.03927083333,0.001057536458
0.03929166667,0.00103174767
0.0393125,0.0009722632822
0.03933333333,0.00097141898
0.03935416667,0.000948339235
0.039375,0.0009414793458
0.03939583333,0.0009237031918
0.03941666667,0.0009475690313
0.0394375,0.0009332425543
0.03945833333,0.0009835792007
0.03947916667,0.0009548933012
0.0395,0.0009124347125
0.03952083333,0.000884011155
0.03954166667,0.0008126927423
0.0395625,0.000779964088
0.03958333333,0.000749889994
0.03960416667,0.0007700902061
0.039625,0.0007351221866
0.03964583333,0.0007457380416
0.03966666667,0.0007309842622
0.0396875,0.0007621311233
0.03970833333,0.000752782973
0.03972916667,0.0007845413638
0.03975,0.0007578850491
0.03977083333,0.0007780223968
0.03979166667,0.0007264807355
0.0398125,0.0007660159026
0.03983333333,0.0007857670425
0.03985416667,0.0008166606422
0.039875,0.0008375379257
0.03989583333,0.0008135980461
0.03991666667,0.0008428049623
0.0399375,0.0008214320405
0.03995833333,0.0008198983851
0.03997916667,0.0007685127784
0.04,0.0008148694178
0.04002083333,0.0007709896308
0.04004166667,0.0008119512931
0.0400625,0.00077510759
0.04008333333,0.0008082081331
0.04010416667,0.0007777635474
0.040125,0.0007857123856
0.04014583333,0.0008030564641
0.04016666667,0.0008356572944
0.0401875,0.0008417008794
0.04020833333,0.0008788698469
0.04022916667,0.00089723157
0.04025,0.0009588713874
0.04027083333,0.001006661449
0.04029166667,0.001051333966
0.0403125,0.001104268013
0.04033333333,0.00109908951
0.04035416667,0.00110615592
0.040375,0.001056692679
0.04039583333,0.001062953146
0.04041666667,0.000982351019
0.0404375,0.001002990641
0.04045833333,0.000936312601
0.04047916667,0.0009055599221
0.0405,0.0008622727473
0.04052083333,0.0008244819473
0.04054166667,0.0008212144603
0.0405625,0.0008235758869
0.04058333333,0.0008381167427
0.04060416667,0.0007801299798
0.040625,0.0008324937662
0.04064583333,0.000771537656
0.04066666667,0.0008016180946
0.0406875,0.0007526087575
0.04070833333,0.0007825493813
0.04072916667,0.000776749861
0.04075,0.0008430457674
0.04077083333,0.0008377638878
0.04079166667,0.0009312714683
0.0408125,0.0009294836782
0.04083333333,0.0009911902016
0.04085416667,0.001053529209
0.040875,0.00111441128
0.04089583333,0.001153790276
0.04091666667,0.001166898524
0.0409375,0.001193712349
0.04095833333,0.001169618801
0.04097916667,0.001187679591
0.041,0.001132098143
0.04102083333,0.001157530816
0.04104166667,0.001114128157
0.0410625,0.001128306496
0.04108333333,0.00106952223
0.04110416667,0.001069205115
0.041125,0.0009805749869
0.04114583333,0.00101518014
0.04116666667,0.0009046891355
0.0411875,0.0008567623445
0.04120833333,0.0008247959777
0.04122916667,0.0008150780923
0.04125,0.0007896304596
0.04127083333,0.0007951158914
0.04129166667,0.0007687907782
0.0413125,0.0007478100015
0.04133333333,0.0007799100713
0.04135416667,0.0007583239349
0.041375,0.0007746251649
0.04139583333,0.0007039000629
0.04141666667,0.0007474798476
0.0414375,0.000712244364
0.04145833333,0.0007839860045
0.04147916667,0.0007657120004
0.0415,0.000820260786
0.04152083333,0.000800342008
0.04154166667,0.0008338288171
0.0415625,0.0007798104198
0.04158333333,0.0007566951099
0.04160416667,0.0007408819511
0.041625,0.0006852499209
0.04164583333,0.0006386713358
0.04166666667,0.0005568838096
0.0416875,0.0005521875573
0.04170833333,0.0005235377466
0.04172916667,0.0005576306139
0.04175,0.0005123538431
0.04177083333,0.0005697621382
0.04179166667,0.0005045954604
0.0418125,0.0005443274858
0.04183333333,0.0005331833963
0.04185416667,0.0005556076067
0.041875,0.0005382401869
0.04189583333,0.000560790475
0.04191666667,0.0005255487049
0.0419375,0.0005372316809
0.04195833333,0.0004996355274
0.04197916667,0.0004905760288
0.042,0.0004543241521
0.04202083333,0.0004093672906
0.04204166667,0.000348879199
0.0420625,0.0002932891948
0.04208333333,0.0002937268873
0.04210416667,0.0002085119049
0.042125,0.0002141355944
0.04214583333,0.000143439669
0.04216666667,0.0002219557791
0.0421875,0.0001661977003
0.04220833333,0.0002242478367
0.04222916667,0.0002333466837
0.04225,0.0002689634857
0.04227083333,0.0002793910098
0.04229166667,0.0002947243629
0.0423125,0.0002562754089
0.04233333333,0.0002433590998
0.04235416667,0.0002094769152
0.042375,0.00013741164
0.04239583333,0.0001297997078
0.04241666667,0.0001450656564
0.0424375,0.0001541943348
0.04245833333,0.0001185509245
0.04247916667,0.0001672913641
0.0425,9.386430611e-05
0.04252083333,0.0001357473957
0.04254166667,8.181382145e-05
0.0425625,0.0001567300642
0.04258333333,0.0001566343562
0.04260416667,0.0002098136029
0.042625,0.0002026390575
0.04264583333,0.0002594439429
0.04266666667,0.0002893411438
0.0426875,0.000315821846
0.04270833333,0.0003322119301
0.04272916667,0.00032854444
0.04275,0.0003883564204
0.04277083333,0.000353822601
0.04279166667,0.0004359720915
0.0428125,0.0004431404814
0.04283333333,0.0005302172503
0.04285416667,0.0005314013688
0.042875,0.000580040738
0.04289583333,0.0005232949043
0.04291666667,0.0005794127937
0.0429375,0.0005288557149
0.04295833333,0.0005340466159
0.04297916667,0.0005034364294
0.043,0.0004817954905
0.04302083333,0.0004198014503
0.04304166667,0.0003429473145
0.0430625,0.0002701830526
0.04308333333,0.0002620285959
0.04310416667,0.0002525905438
0.043125,0.0002245589858
0.04314583333,0.0002131749934
0.04316666667,0.0001957189234
0.0431875,0.0001982176036
0.04320833333,0.0001573314657
0.04322916667,0.0001469818671
0.04325,6.541283801e-05
0.04327083333,-1.136478295e-05
0.04329166667,-7.521508087e-05
0.0433125,-0.0001076779954
0.04333333333,-0.0001936977933
0.04335416667,-0.0002549776109
0.043375,-0.0003257157805
0.04339583333,-0.0003565262014
0.04341666667,-0.000367066008
0.0434375,-0.0003656853805
0.04345833333,-0.0003422336886
0.04347916667,-0.0003000786528
0.0435,-0.000283783651
0.04352083333,-0.0003192281874
0.04354166667,-0.0003181572538
0.0435625,-0.0003322775592
0.04358333333,-0.0003470084921
0.04360416667,-0.0003902505268
0.043625,-0.0004318866995
0.04364583333,-0.0004591495963
0.04366666667,-0.0004945744877
0.0436875,-0.0005376535701
0.04370833333,-0.0005394796608
0.04372916667,-0.0005799157079
0.04375,-0.0005726492964
0.04377083333,-0.0005881409161
0.04379166667,-0.0005809376016
0.0438125,-0.0005676189903
0.04383333333,-0.0005628454383
0.04385416667,-0.0005142320297
0.043875,-0.0005001568352
0.04389583333,-0.0004062113294
0.04391666667,-0.0003856075928
0.0439375,-0.0003548126842
0.04395833333,-0.0003795129014
0.04397916667,-0.0003402743023
0.044,-0.0003650729486
0.04402083333,-0.0004005460069
0.04404166667,-0.0004659601254
0.0440625,-0.0005245934008
0.04408333333,-0.0005803900422
0.04410416667,-0.0006153184222
0.044125,-0.0006392742507
0.04414583333,-0.0005977197434
0.04416666667,-0.0005996578839
0.0441875,-0.0006079386803
0.04420833333,-0.0006118122255
0.04422916667,-0.0006262718816
0.04425,-0.0006462188903
0.04427083333,-0.0007004443323
0.04429166667,-0.0007409717073
0.0443125,-0.0007876934251
0.04433333333,-0.0007885664236
0.04435416667,-0.0008291509002
0.044375,-0.0008214527625
0.04439583333,-0.0008517591632
0.04441666667,-0.0008695834549
0.0444375,-0.0008827312267
0.04445833333,-0.0009176589665
0.04447916667,-0.0009534234996
0.0445,-0.0009418219561
0.04452083333,-0.0009700183291
0.04454166667,-0.0009982422926
0.0445625,-0.001015067101
0.04458333333,-0.001000602264
0.04460416667,-0.0009789954638
0.044625,-0.0009718465153
0.04464583333,-0.0009512015386
0.04466666667,-0.0009361975826
0.0446875,-0.0009062280878
0.04470833333,-0.0009597518947
0.04472916667,-0.0009917774005
0.04475,-0.001044370583
0.04477083333,-0.001013982692
0.04479166667,-0.001028208295
0.0448125,-0.001020699972
0.04483333333,-0.001029480947
0.04485416667,-0.00101699261
0.044875,-0.001038558083
0.04489583333,-0.001075012144
0.04491666667,-0.001110522193
0.0449375,-0.00113436766
0.04495833333,-0.001180656254
0.04497916667,-0.001268899301
0.045,-0.001327939099
0.04502083333,-0.001376333414
0.04504166667,-0.001381500857
0.0450625,-0.001403253875
0.04508333333,-0.001386451186
0.04510416667,-0.001414716942
0.045125,-0.00146528997
0.04514583333,-0.001569911372
0.04516666667,-0.001617100206
0.0451875,-0.001680901623
0.04520833333,-0.001637234236
0.04522916667,-0.001615940011
0.04525,-0.001582309953
0.04527083333,-0.001629645587
0.04529166667,-0.001658348832
0.0453125,-0.001651243307
0.04533333333,-0.00161312439
0.04535416667,-0.001594249392
0.045375,-0.00158305408
0.04539583333,-0.001533626579
0.04541666667,-0.00151487533
0.0454375,-0.001478309976
0.04545833333,-0.001470482093
0.04547916667,-0.001399759436
0.0455,-0.001413618913
0.04552083333,-0.001404964831
0.04554166667,-0.001461998094
0.0455625,-0.001495573903
0.04558333333,-0.00152969081
0.04560416667,-0.001571478555
0.045625,-0.001604492776
0.04564583333,-0.001611575135
0.04566666667,-0.001595610753
0.0456875,-0.001603365643
0.04570833333,-0.001628930797
0.04572916667,-0.001643848373
0.04575,-0.001708697411
0.04577083333,-0.001760487212
0.04579166667,-0.001808111672
0.0458125,-0.00181074976
0.04583333333,-0.001819543657
0.04585416667,-0.001815244206
0.045875,-0.001741583459
0.04589583333,-0.001723204507
0.04591666667,-0.001662904047
0.0459375,-0.001627549995
0.04595833333,-0.001561916433
0.04597916667,-0.001510301954
0.046,-0.001474359771
0.04602083333,-0.001511998824
0.04604166667,-0.001510472037
0.0460625,-0.001530405716
0.04608333333,-0.001579621108
0.04610416667,-0.001613369677
0.046125,-0.001681728987
0.04614583333,-0.001707311836
0.04616666667,-0.001767123933
0.0461875,-0.001796684926
0.04620833333,-0.001788590569
0.04622916667,-0.001737829065
0.04625,-0.001719641848
0.04627083333,-0.001681736787
0.04629166667,-0.001766054193
0.0463125,-0.001810587011
0.04633333333,-0.00182628911
0.04635416667,-0.001811613445
0.046375,-0.001846577856
0.04639583333,-0.001840552082
0.04641666667,-0.001857183757
0.0464375,-0.001831589499
0.04645833333,-0.001825092593
0.04647916667,-0.001855500625
0.0465,-0.00187220471
0.04652083333,-0.001938786474
0.04654166667,-0.001966573298
0.0465625,-0.002041759668
0.04658333333,-0.002059361897
0.04660416667,-0.002078308724
0.046625,-0.002105589258
0.04664583333,-0.002175448928
0.04666666667,-0.002219640417
0.0466875,-0.002292248886
0.04670833333,-0.002293933183
0.04672916667,-0.0023443182
0.04675,-0.002373735653
0.04677083333,-0.002422351623
0.04679166667,-0.002473512664
0.0468125,-0.002513939748
0.04683333333,-0.002539202571
0.04685416667,-0.00258911727
0.046875,-0.002581766574
0.04689583333,-0.002615068108
0.04691666667,-0.002641930245
0.0469375,-0.002659475198
0.04695833333,-0.002683718689
0.04697916667,-0.002640563995
0.047,-0.002591775963
0.04702083333,-0.002534311032
0.04704166667,-0.002498412272
0.0470625,-0.002475457499
0.04708333333,-0.002494638087
0.04710416667,-0.002448063344
0.047125,-0.002456840826
0.04714583333,-0.002372356132
0.04716666667,-0.002388760913
0.0471875,-0.002334944438
0.04720833333,-0.002343790838
0.04722916667,-0.002327061025
0.04725,-0.002296294551
0.04727083333,-0.002241575159
0.04729166667,-0.002231080551
0.0473125,-0.00219091773
0.04733333333,-0.002185056917
0.04735416667,-0.002217792673
0.047375,-0.002254785271
0.04739583333,-0.002307042014
0.04741666667,-0.002289108466
0.0474375,-0.002298947424
0.04745833333,-0.002257250249
0.04747916667,-0.00228107674
0.0475,-0.002289011609
0.04752083333,-0.002380269812
0.04754166667,-0.002417694544
0.0475625,-0.002472755965
0.04758333333,-0.002496571746
0.04760416667,-0.002557404339
0.047625,-0.002593638375
0.04764583333,-0.002660492901
0.04766666667,-0.002730119741
0.0476875,-0.002742733806
0.04770833333,-0.002752058906
0.04772916667,-0.002714958973
0.04775,-0.002680305392
0.04777083333,-0.002634843346
0.04779166667,-0.002572938334
0.0478125,-0.002504232805
0.04783333333,-0.002449041232
0.04785416667,-0.002400259022
0.047875,-0.002392192138
0.04789583333,-0.002412345028
0.04791666667,-0.002469679806
0.0479375,-0.002435663948
0.04795833333,-0.002432260197
0.04797916667,-0.002394375391
0.048,-0.002457310911
0.04802083333,-0.002426689956
0.04804166667,-0.00249442691
0.0480625,-0.002504254458
0.04808333333,-0.00250816904
0.04810416667,-0.002531212289
0.048125,-0.002541313879
0.04814583333,-0.00257645105
0.04816666667,-0.002616380341
0.0481875,-0.002727959771
0.04820833333,-0.002735906746
0.04822916667,-0.002807402518
0.04825,-0.002860011766
0.04827083333,-0.002928966191
0.04829166667,-0.002935776487
0.0483125,-0.003048277926
0.04833333333,-0.003038469236
0.04835416667,-0.00303075416
0.048375,-0.002966544591
0.04839583333,-0.002944934648
0.04841666667,-0.00293425587
0.0484375,-0.002901519649
0.04845833333,-0.002876162529
0.04847916667,-0.002919648075
0.0485,-0.002931326162
0.04852083333,-0.002886441536
0.04854166667,-0.002860536799
0.0485625,-0.002849475248
0.04858333333,-0.002900748048
0.04860416667,-0.002966293367
0.048625,-0.003047495848
0.04864583333,-0.003107136814
0.04866666667,-0.003180398606
0.0486875,-0.003256308381
0.04870833333,-0.003385302378
0.04872916667,-0.003449836746
0.04875,-0.003545365063
0.04877083333,-0.003572720103
0.04879166667,-0.003652393352
0.0488125,-0.003650572384
0.04883333333,-0.003702149261
0.04885416667,-0.003721354064
0.048875,-0.003802863881
0.04889583333,-0.003842498874
0.04891666667,-0.003860041965
0.0489375,-0.003854015376
0.04895833333,-0.003846475156
0.04897916667,-0.00384694268
0.049,-0.003825419582
0.04902083333,-0.003866913961
0.04904166667,-0.003887292463
0.0490625,-0.003898866475
0.04908333333,-0.003868998028
0.04910416667,-0.003881668672
0.049125,-0.00384913478
0.04914583333,-0.003868394997
0.04916666667,-0.003835509298
0.0491875,-0.003862225451
0.04920833333,-0.003830989357
0.04922916667,-0.003837160766
0.04925,-0.003837965662
0.04927083333,-0.00386748137
0.04929166667,-0.003853283823
0.0493125,-0.003861562116
0.04933333333,-0.003878040938
0.04935416667,-0.00390558783
0.049375,-0.003980445676
0.04939583333,-0.004052779637
0.04941666667,-0.004149117973
0.0494375,-0.004182539415
0.04945833333,-0.004211860709
0.04947916667,-0.004199807998
0.0495,-0.004249023739
0.04952083333,-0.004204588477
0.04954166667,-0.004161524586
0.0495625,-0.004070082679
0.04958333333,-0.004036302213
0.04960416667,-0.004084607586
0.049625,-0.004089741968
0.04964583333,-0.004061314277
0.04966666667,-0.004041692242
0.0496875,-0.004003012087
0.04970833333,-0.00394994067
0.04972916667,-0.00392325921
0.04975,-0.003935442306
0.04977083333,-0.003952489235
0.04979166667,-0.003961774521
0.0498125,-0.003980437759
0.04983333333,-0.003912743181
0.04985416667,-0.003886375576
0.049875,-0.003906179685
0.04989583333,-0.003974610474
0.04991666667,-0.003974109888
0.0499375,-0.003982851747
0.04995833333,-0.003961081617
0.04997916667,-0.003977044486
0.05,-0.004017582629
0.05002083333,-0.004047877155
0.05004166667,-0.004052965436
0.0500625,-0.004026119597
0.05008333333,-0.003956138156
0.05010416667,-0.003893944202
0.050125,-0.003852573456
0.05014583333,-0.003813421354
0.05016666667,-0.003772507887
0.0501875,-0.003677297616
0.05020833333,-0.003641598858
0.05022916667,-0.003536715871
0.05025,-0.003556163283
0.05027083333,-0.003559079254
0.05029166667,-0.00359156332
0.0503125,-0.00361200585
0.05033333333,-0.003639491275
0.05035416667,-0.003571625799
0.050375,-0.003580571618
0.05039583333,-0.003542645369
0.05041666667,-0.003506504931
0.0504375,-0.003454637481
0.05045833333,-0.003427563701
0.05047916667,-0.003339752322
0.0505,-0.003259057878
0.05052083333,-0.003272705013
0.05054166667,-0.003268474014
0.0505625,-0.003316893708
0.05058333333,-0.003366960445
0.05060416667,-0.003479466541
0.050625,-0.003524914384
0.05064583333,-0.003598041134
0.05066666667,-0.003609259613
0.0506875,-0.003660024842
0.05070833333,-0.003607378574
0.05072916667,-0.003547497327
0.05075,-0.003438960528
0.05077083333,-0.003294856753
0.05079166667,-0.003206284018
0.0508125,-0.00308764982
0.05083333333,-0.002958198078
0.05085416667,-0.002824699273
0.050875,-0.002736002207
0.05089583333,-0.002556447638
0.05091666667,-0.002500003669
0.0509375,-0.00234922138
0.05095833333,-0.002280509565
0.05097916667,-0.002082731575
0.051,-0.001981314505
0.05102083333,-0.001769108698
0.05104166667,-0.00161552988
0.0510625,-0.001412754995
0.05108333333,-0.001238539582
0.05110416667,-0.001048912178
0.051125,-0.0007916073082
0.05114583333,-0.0006288358127
0.05116666667,-0.0004435788724
0.0511875,-0.0003620103817
0.05120833333,-0.0003033805697
0.05122916667,-0.0002585706534
0.05125,-0.0001341104362
0.05127083333,-7.965667464e-05
0.05129166667,1.603722558e-05
0.0513125,0.0001096117994
0.05133333333,0.0002297873143
0.05135416667,0.0002558501728
0.051375,0.0004373398551
0.05139583333,0.0005900494871
0.05141666667,0.0007203476271
0.0514375,0.0008239363669
0.05145833333,0.0008903645212
0.05147916667,0.0009422431467
0.0515,0.001042673714
0.05152083333,0.001127296244
0.05154166667,0.001169218798
0.0515625,0.001320876065
0.05158333333,0.001417363645
0.05160416667,0.001603786484
0.051625,0.001697471016
0.05164583333,0.001830014982
0.05166666667,0.001812114613
0.0516875,0.001924581011
0.05170833333,0.0019788309
0.05172916667,0.002078584861
0.05175,0.002106827451
0.05177083333,0.002132665832
0.05179166667,0.002145431703
0.0518125,0.002143006073
0.05183333333,0.002130477456
0.05185416667,0.002159206895
0.051875,0.002213684842
0.05189583333,0.002192781772
0.05191666667,0.002187138656
0.0519375,0.002045187633
0.05195833333,0.002028023824
0.05197916667,0.001924881479
0.052,0.001873903559
0.05202083333,0.001807274646
0.05204166667,0.001791071612
0.0520625,0.001761871856
0.05208333333,0.001814498799
0.05210416667,0.001762423781
0.052125,0.001817568671
0.05214583333,0.00182157848
0.05216666667,0.001795704011
0.0521875,0.001771673211
0.05220833333,0.001771530602
0.05222916667,0.001813441864
0.05225,0.001790852752
0.05227083333,0.00188527198
0.05229166667,0.001908692415
0.0523125,0.001982484711
0.05233333333,0.002000533277
0.05235416667,0.002120977733
0.052375,0.002127563814
0.05239583333,0.002167958766
0.05241666667,0.002119131852
0.0524375,0.002238579793
0.05245833333,0.002262219088
0.05247916667,0.002323090332
0.0525,0.002342171501
0.05252083333,0.002427644096
0.05254166667,0.002571839839
0.0525625,0.002632590011
0.05258333333,0.002646855079
0.05260416667,0.002585337032
0.052625,0.002628128044
0.05264583333,0.002599774161
0.05266666667,0.002627189504
0.0526875,0.002583199413
0.05270833333,0.002623501001
0.05272916667,0.002606630558
0.05275,0.002643362619
0.05277083333,0.002660799772
0.05279166667,0.002729445929
0.0528125,0.002743650926
0.05283333333,0.002729294123
0.05285416667,0.002679261379
0.052875,0.002711450914
0.05289583333,0.00265334174
0.05291666667,0.002647578251
0.0529375,0.002646236913
0.05295833333,0.002649842296
0.05297916667,0.002708728658
0.053,0.002720426768
0.05302083333,0.002768299775
0.05304166667,0.002827411518
0.0530625,0.002908213995
0.05308333333,0.002912307857
0.05310416667,0.002930139657
0.053125,0.002923236694
0.05314583333,0.002951795002
0.05316666667,0.002983429702
0.0531875,0.003024002071
0.05320833333,0.003034214955
0.05322916667,0.003058585804
0.05325,0.003043974051
0.05327083333,0.003109270241
0.05329166667,0.003198135179
0.0533125,0.003290861612
0.05333333333,0.003384969663
0.05335416667,0.003498031991
0.053375,0.003570664441
0.05339583333,0.003649786115
0.05341666667,0.003736103885
0.0534375,0.003820368787
0.05345833333,0.003903622739
0.05347916667,0.003930772655
0.0535,0.003977419809
0.05352083333,0.0040010456
0.05354166667,0.004065751098
0.0535625,0.004057224374
0.05358333333,0.004117078148
0.05360416667,0.004137804266
0.053625,0.004225067329
0.05364583333,0.004276874475
0.05366666667,0.004308778793
0.0536875,0.004349547438
0.05370833333,0.004332297016
0.05372916667,0.004351611715
0.05375,0.004310121294
0.05377083333,0.004283905961
0.05379166667,0.004230112769
0.0538125,0.004223214928
0.05383333333,0.004176755436
0.05385416667,0.004151338711
0.053875,0.004081605934
0.05389583333,0.004069002345
0.05391666667,0.004060009494
0.0539375,0.004118715413
0.05395833333,0.004148740321
0.05397916667,0.004153573886
0.054,0.004159478471
0.05402083333,0.004182729404
0.05404166667,0.004182808567
0.0540625,0.004214546178
0.05408333333,0.004239243455
0.05410416667,0.004274785053
0.054125,0.004284129478
0.05414583333,0.004281386733
0.05416666667,0.004253250547
0.0541875,0.004184995312
0.05420833333,0.004193590488
0.05422916667,0.004201161675
0.05425,0.004217020236
0.05427083333,0.004202546086
0.05429166667,0.004239177797
0.0543125,0.004260187037
0.05433333333,0.004288466182
0.05435416667,0.004326481372
0.054375,0.004320783541
0.05439583333,0.004372198135
0.05441666667,0.00440723123
0.0544375,0.004410859197
0.05445833333,0.004467084538
0.05447916667,0.004511759151
0.0545,0.004527059384
0.05452083333,0.004594156053
0.05454166667,0.004570104647
0.0545625,0.004594611004
0.05458333333,0.004608844407
0.05460416667,0.004605697468
0.054625,0.004589600489
0.05464583333,0.004622077569
0.05466666667,0.004599260166
0.0546875,0.00465482194
0.05470833333,0.004686909262
0.05472916667,0.004788174294
0.05475,0.00486300746
0.05477083333,0.004932648037
0.05479166667,0.005000971258
0.0548125,0.005040435586
0.05483333333,0.005094450898
0.05485416667,0.005033587106
0.054875,0.005034659058
0.05489583333,0.004944987129
0.05491666667,0.004926457535
0.0549375,0.00484132627
0.05495833333,0.004822974559
0.05497916667,0.004852693994
0.055,0.00490135001
0.05502083333,0.004972713068
0.05504166667,0.005047664046
0.0550625,0.005093677435
0.05508333333,0.005143773276
0.05510416667,0.005151907448
0.055125,0.005200385116
0.05514583333,0.005204577465
0.05516666667,0.00515083177
0.0551875,0.005133719649
0.05520833333,0.005082088988
0.05522916667,0.005055224057
0.05525,0.004999947269
0.05527083333,0.004983044229
0.05529166667,0.005047122017
0.0553125,0.005051609594
0.05533333333,0.004978977609
0.05535416667,0.005054940935
0.055375,0.00510307448
0.05539583333,0.005133491009
0.05541666667,0.005151513964
0.0554375,0.005164384842
0.05545833333,0.005203416105
0.05547916667,0.005229101516
0.0555,0.00521471398
0.05552083333,0.005242978223
0.05554166667,0.005281385966
0.0555625,0.005253721029
0.05558333333,0.005273890682
0.05560416667,0.005240252241
0.055625,0.005226376932
0.05564583333,0.005216479767
0.05566666667,0.005236117169
0.0556875,0.00528514944
0.05570833333,0.005403733347
0.05572916667,0.005480242893
0.05575,0.005583691411
0.05577083333,0.005680113565
0.05579166667,0.00577591965
0.0558125,0.005771024618
0.05583333333,0.00574113382
0.05585416667,0.005722467322
0.055875,0.005741830915
0.05589583333,0.005767565686
0.05591666667,0.00572832441
0.0559375,0.005738715176
0.05595833333,0.00575933652
0.05597916667,0.005819304846
0.056,0.00582503574
0.05602083333,0.005847897846
0.05604166667,0.005844181404
0.0560625,0.00590085052
0.05608333333,0.005884295329
0.05610416667,0.005840701517
0.056125,0.005796026904
0.05614583333,0.005780054256
0.05616666667,0.005747338291
0.0561875,0.00569068687
0.05620833333,0.005662394688
0.05622916667,0.005649844185
0.05625,0.005683906376
0.05627083333,0.005581165198
0.05629166667,0.005510188639
0.0563125,0.005464112852
0.05633333333,0.005443753675
0.05635416667,0.005469214637
0.056375,0.005462416913
0.05639583333,0.005426446442
0.05641666667,0.005390020087
0.0564375,0.00533964159
0.05645833333,0.005308925174
0.05647916667,0.005332425237
0.0565,0.005405178294
0.05652083333,0.005482379347
0.05654166667,0.005508170463
0.0565625,0.005474757869
0.05658333333,0.005459371954
0.05660416667,0.005433656741
0.056625,0.005421643611
0.05664583333,0.005459531676
0.05666666667,0.005401545204
0.0566875,0.0054257093
0.05670833333,0.00543274451
0.05672916667,0.005468159914
0.05675,0.005460024811
0.05677083333,0.005517486949
0.05679166667,0.005551325623
0.0568125,0.005620767362
0.05683333333,0.005656945519
0.05685416667,0.005685682409
0.056875,0.005724882241
0.05689583333,0.005756621249
0.05691666667,0.005764201283
0.0569375,0.00573341269
0.05695833333,0.005719016306
0.05697916667,0.005811250303
0.057,0.005904157646
0.05702083333,0.00596180791
0.05704166667,0.006020194385
0.0570625,0.006077867001
0.05708333333,0.00613663625
0.05710416667,0.006176053081
0.057125,0.006316995714
0.05714583333,0.006375400349
0.05716666667,0.006465449464
0.0571875,0.006466522347
0.05720833333,0.00654596556
0.05722916667,0.006582207046
0.05725,0.00668496266
0.05727083333,0.00671881903
0.05729166667,0.006777953357
0.0573125,0.006850350648
0.05733333333,0.006884505041
0.05735416667,0.006956425495
0.057375,0.006987351459
0.05739583333,0.007009447552
0.05741666667,0.006998733617
0.0574375,0.006988421548
0.05745833333,0.006973396055
0.05747916667,0.007025965024
0.0575,0.007035916671
0.05752083333,0.007168741897
0.05754166667,0.007177190855
0.0575625,0.007219495717
0.05758333333,0.007207253948
0.05760416667,0.007138129789
0.057625,0.007138278801
0.05764583333,0.007147898898
0.05766666667,0.00713891536
0.0576875,0.0071436828
0.05770833333,0.007121562958
0.05772916667,0.007160975598
0.05775,0.007173165213
0.05777083333,0.007180216257
0.05779166667,0.007213438861
0.0578125,0.007167912088
0.05783333333,0.007170218509
0.05785416667,0.007127121091
0.057875,0.007115398068
0.05789583333,0.007037633564
0.05791666667,0.007007909473
0.0579375,0.006893481128
0.05795833333,0.006842732895
0.05797916667,0.006720330101
0.058,0.006638656836
0.05802083333,0.00658385735
0.05804166667,0.006513115019
0.0580625,0.006462614052
0.05808333333,0.006405009888
0.05810416667,0.006403963547
0.058125,0.006425135303
0.05814583333,0.006433282048
0.05816666667,0.00639287848
0.0581875,0.006370762829
0.05820833333,0.006348463707
0.05822916667,0.006341908593
0.05825,0.006273190025
0.05827083333,0.006307705306
0.05829166667,0.006297050044
0.0583125,0.0063236407
0.05833333333,0.006258895155
0.05835416667,0.006264011376
0.058375,0.006249373313
0.05839583333,0.006311780773
0.05841666667,0.006342194509
0.0584375,0.006393355783
0.05845833333,0.006373883691
0.05847916667,0.006424413528
0.0585,0.006486296654
0.05852083333,0.006557924207
0.05854166667,0.006630817428
0.0585625,0.006578959059
0.05858333333,0.006609350443
0.05860416667,0.006583556067
0.058625,0.006656932645
0.05864583333,0.006675706245
0.05866666667,0.006732146256
0.0586875,0.006788308732
0.05870833333,0.00688398676
0.05872916667,0.006894471124
0.05875,0.006918456405
0.05877083333,0.006923436653
0.05879166667,0.006975077558
0.0588125,0.006986259948
0.05883333333,0.006998050492
0.05885416667,0.00698487414
0.058875,0.006977315061
0.05889583333,0.006940480322
0.05891666667,0.006949590519
0.0589375,0.006983558182
0.05895833333,0.00695289718
0.05897916667,0.007028121501
0.059,0.007009826135
0.05902083333,0.007047213148
0.05904166667,0.00703686988
0.0590625,0.007061342243
0.05908333333,0.007057855837
0.05910416667,0.007098278962
0.059125,0.007090243045
0.05914583333,0.007115679793
0.05916666667,0.007088467479
0.0591875,0.007179941516
0.05920833333,0.007220903877
0.05922916667,0.007294875104
0.05925,0.007407939527
0.05927083333,0.007513440214
0.05929166667,0.007549046539
0.0593125,0.007543088403
0.05933333333,0.007540671155
0.05935416667,0.00752466917
0.059375,0.007545782253
0.05939583333,0.007493489422
0.05941666667,0.007517804857
0.0594375,0.007459687069
0.05945833333,0.007449667435
0.05947916667,0.007375448011
0.0595,0.00732747931
0.05952083333,0.007242177613
0.05954166667,0.007211335935
0.0595625,0.007130808663
0.05958333333,0.007074622437
0.05960416667,0.006987473927
0.059625,0.006899539847
0.05964583333,0.006827094592
0.05966666667,0.006781580858
0.0596875,0.006767374929
0.05970833333,0.006774256006
0.05972916667,0.006765410304
0.05975,0.00668834988
0.05977083333,0.006709061563
0.05979166667,0.00666359812
0.0598125,0.006766750012
0.05983333333,0.006817610003
0.05985416667,0.006903947331
0.059875,0.007012211718
0.05989583333,0.007143974304
0.05991666667,0.007172032259
0.0599375,0.007263727952
0.05995833333,0.007339271717
0.05997916667,0.007365377154
0.06,0.007408105303
0.06002083333,0.00741382828
0.06004166667,0.00744606927
0.0600625,0.007458389271
0.06008333333,0.007486707531
0.06010416667,0.007455538958
0.060125,0.007390889805
0.06014583333,0.007349166088
0.06016666667,0.00741739152
0.0601875,0.007399943192
0.06020833333,0.007429396268
0.06022916667,0.007381941192
0.06025,0.007306521293
0.06027083333,0.007188602816
0.06029166667,0.007148010656
0.0603125,0.007081522606
0.06033333333,0.007079946809
0.06035416667,0.007039871998
0.060375,0.007043220103
0.06039583333,0.006993624847
0.06041666667,0.006927342154
0.0604375,0.006931046024
0.06045833333,0.006869776174
0.06047916667,0.006874279119
0.0605,0.006814701948
0.06052083333,0.006763420999
0.06054166667,0.006713185459
0.0605625,0.006793295965
0.06058333333,0.006798307411
0.06060416667,0.006804533768
0.060625,0.006810261402
0.06064583333,0.006769123487
0.06066666667,0.006720140576
0.0606875,0.006767294835
0.06070833333,0.006686889566
0.06072916667,0.006686077919
0.06075,0.00662343204
0.06077083333,0.00653282227
0.06079166667,0.00640264526
0.0608125,0.006241208874
0.06083333333,0.006127909292
0.06085416667,0.005915252026
0.060875,0.005751870573
0.06089583333,0.005603665486
0.06091666667,0.005455483682
0.0609375,0.0052670273
0.06095833333,0.005218594801
0.06097916667,0.005040652584
0.061,0.005000609905
0.06102083333,0.004852574319
0.06104166667,0.004813400097
0.0610625,0.004724938888
0.06108333333,0.004690138157
0.06110416667,0.004643220454
0.061125,0.004572386853
0.06114583333,0.004504180048
0.06116666667,0.004435191397
0.0611875,0.0043585971
0.06120833333,0.004277502187
0.06122916667,0.004248689394
0.06125,0.00414724974
0.06127083333,0.004147090018
0.06129166667,0.004055081401
0.0613125,0.004029678181
0.06133333333,0.003925669938
0.06135416667,0.003957215231
0.061375,0.003835201962
0.06139583333,0.003830939298
0.06141666667,0.003643091768
0.0614375,0.003518138779
0.06145833333,0.003494943259
0.06147916667,0.003362772753
0.0615,0.003195482073
0.06152083333,0.003145880066
0.06154166667,0.00302244653
0.0615625,0.003017516574
0.06158333333,0.003030543448
0.06160416667,0.002883799607
0.061625,0.002935700584
0.06164583333,0.002876437735
0.06166666667,0.002871637
0.0616875,0.002763646655
0.06170833333,0.002718794625
0.06172916667,0.002603693167
0.06175,0.002618955448
0.06177083333,0.002569737611
0.06179166667,0.0025229936
0.0618125,0.00245829206
0.06183333333,0.002482041251
0.06185416667,0.00243859156
0.061875,0.002370106522
0.06189583333,0.002314888407
0.06191666667,0.002258953406
0.0619375,0.002255878877
0.06195833333,0.002194123343
0.06197916667,0.002217813395
0.062,0.00216694898
0.06202083333,0.002198603237
0.06204166667,0.002120620338
0.0620625,0.002052451251
0.06208333333,0.001900193514
0.06210416667,0.00177406217
0.062125,0.001662462018
0.06214583333,0.001640765811
0.06216666667,0.001520421356
0.0621875,0.001535812393
0.06220833333,0.001483275089
0.06222916667,0.001475825906
0.06225,0.001466979971
0.06227083333,0.001481423504
0.06229166667,0.001510798116
0.0623125,0.001490574679
0.06233333333,0.001523229992
0.06235416667,0.001489499933
0.062375,0.001537521253
0.06239583333,0.001626978046
0.06241666667,0.001705630333
0.0624375,0.001767483074
0.06245833333,0.001951749087
0.06247916667,0.00192724925
0.0625,0.002010313096
0.06252083333,0.001960723428
0.06254166667,0.002134816954
0.0625625,0.002101701684
0.06258333333,0.002189888619
0.06260416667,0.002299564658
0.062625,0.002284411574
0.06264583333,0.002380701015
0.06266666667,0.002478039358
0.0626875,0.002559595741
0.06270833333,0.002661142731
0.06272916667,0.002691280562
0.06275,0.002704624552
0.06277083333,0.002789916936
0.06279166667,0.002807739191
0.0628125,0.002788292244
0.06283333333,0.00274930615
0.06285416667,0.002755322028
0.062875,0.002666061744
0.06289583333,0.0026440816
0.06291666667,0.002620036481
0.0629375,0.002649307717
0.06295833333,0.002599879634
0.06297916667,0.002671588678
0.063,0.002632286632
0.06302083333,0.002638508566
0.06304166667,0.002620829036
0.0630625,0.002600351349
0.06308333333,0.002551925834
0.06310416667,0.002494980814
0.063125,0.002427445725
0.06314583333,0.00235736859
0.06316666667,0.002315215766
0.0631875,0.002301090164
0.06320833333,0.00227077771
0.06322916667,0.002171637258
0.06325,0.002140675439
0.06327083333,0.00210138876
0.06329166667,0.002056183526
0.0633125,0.001996180974
0.06333333333,0.001973628998
0.06335416667,0.001934689586
0.063375,0.001964460127
0.06339583333,0.00190603605
0.06341666667,0.001904223347
0.0634375,0.001884005498
0.06345833333,0.001872907626
0.06347916667,0.001876560505
0.0635,0.001801241888
0.06352083333,0.001751694479
0.06354166667,0.001798214158
0.0635625,0.001780461054
0.06358333333,0.001772606163
0.06360416667,0.001784196356
0.063625,0.001808314701
0.06364583333,0.001946908189
0.06366666667,0.00199834723
0.0636875,0.002126928885
0.06370833333,0.002229993697
0.06372916667,0.002383522457
0.06375,0.00244790595
0.06377083333,0.002518716967
0.06379166667,0.002612934448
0.0638125,0.002737041097
0.06383333333,0.002821547212
0.06385416667,0.002917818259
0.063875,0.00297512766
0.06389583333,0.003019046038
0.06391666667,0.003095388412
0.0639375,0.003129514866
0.06395833333,0.003169239266
0.06397916667,0.003238890553
0.064,0.003302258439
0.06402083333,0.003373730462
0.06404166667,0.003485762514
0.0640625,0.003562669735
0.06408333333,0.003671954386
0.06410416667,0.003725087736
0.064125,0.003799017286
0.06414583333,0.003845275613
0.06416666667,0.003951043356
0.0641875,0.0040491689
0.06420833333,0.004100705497
0.06422916667,0.004149019718
0.06425,0.004164943006
0.06427083333,0.00417803647
0.06429166667,0.004248842597
0.0643125,0.004319721833
0.06433333333,0.004389900714
0.06435416667,0.004439133685
0.064375,0.004502460361
0.06439583333,0.004559881054
0.06441666667,0.004557054956
0.0644375,0.004608377814
0.06445833333,0.004662037361
0.06447916667,0.004622895271
0.0645,0.004559563939
0.06452083333,0.004468933679
0.06454166667,0.004336996935
0.0645625,0.004326745868
0.06458333333,0.004223410506
0.06460416667,0.004183620214
0.064625,0.004041402135
0.06464583333,0.003978198394
0.06466666667,0.003833546303
0.0646875,0.003673795378
0.06470833333,0.003568822984
0.06472916667,0.003424374154
0.06475,0.003305073362
0.06477083333,0.003104377072
0.06479166667,0.002936625388
0.0648125,0.002777924994
0.06483333333,0.00267572538
0.06485416667,0.002532487735
0.064875,0.00239281659
0.06489583333,0.002191014588
0.06491666667,0.00198535854
0.0649375,0.00183690025
0.06495833333,0.001715947757
0.06497916667,0.001572684036
0.065,0.00142976502
0.06502083333,0.001285881037
0.06504166667,0.001157963998
0.0650625,0.0009822787251
0.06508333333,0.0008752307622
0.06510416667,0.0007384819328
0.065125,0.0005914462963
0.06514583333,0.0005194083788
0.06516666667,0.0003684887779
0.0651875,0.0001892989385
0.06520833333,7.472156722e-05
0.06522916667,-4.103784158e-05
0.06525,-0.0001327399805
0.06527083333,-0.0001954840409
0.06529166667,-0.0002998344135
0.0653125,-0.0004085290711
0.06533333333,-0.0006003997987
0.06535416667,-0.0007495459868
0.065375,-0.0009394926601
0.06539583333,-0.001075924374
0.06541666667,-0.001210826915
0.0654375,-0.001320098294
0.06545833333,-0.001499301987
0.06547916667,-0.001655024244
0.0655,-0.001746136462
0.06552083333,-0.001879631542
0.06554166667,-0.002056411002
0.0655625,-0.002228576457
0.06558333333,-0.002361395862
0.06560416667,-0.002534023253
0.065625,-0.002660365542
0.06564583333,-0.002771971282
0.06566666667,-0.00282844645
0.0656875,-0.00292435498
0.06570833333,-0.00303641893
0.06572916667,-0.003185379086
0.06575,-0.003310493194
0.06577083333,-0.003444763832
0.06579166667,-0.003571831388
0.0658125,-0.003721293528
0.06583333333,-0.003793941112
0.06585416667,-0.003920820076
0.065875,-0.004066740163
0.06589583333,-0.00416026637
0.06591666667,-0.004290013574
0.0659375,-0.004439482
0.06595833333,-0.004550152924
0.06597916667,-0.004669231363
0.066,-0.004798657726
0.06602083333,-0.004857195076
0.06604166667,-0.004996023607
0.0660625,-0.005102498457
0.06608333333,-0.005266634282
0.06610416667,-0.00537549518
0.066125,-0.005563166458
0.06614583333,-0.005758768413
0.06616666667,-0.005908555351
0.0661875,-0.006054637488
0.06620833333,-0.006150319707
0.06622916667,-0.006233162712
0.06625,-0.00629400555
0.06627083333,-0.006359076593
0.06629166667,-0.00639522355
0.0663125,-0.006481635384
0.06633333333,-0.006587859709
0.06635416667,-0.006654133555
0.066375,-0.00676101679
0.06639583333,-0.006832313258
0.06641666667,-0.006883073598
0.0664375,-0.006960452534
0.06645833333,-0.007005535532
0.06647916667,-0.007127718069
0.0665,-0.007149612065
0.06652083333,-0.007259085774
0.06654166667,-0.007322423626
0.0665625,-0.007368460763
0.06658333333,-0.007406549994
0.06660416667,-0.00742404582
0.066625,-0.00747290859
0.06664583333,-0.007529192604
0.06666666667,-0.007576541509
0.0666875,-0.007632690016
0.06670833333,-0.007661311887
0.06672916667,-0.007714092731
0.06675,-0.007811209187
0.06677083333,-0.007871556096
0.06679166667,-0.007981191389
0.0668125,-0.008041881025
0.06683333333,-0.00813294854
0.06685416667,-0.008147307672
0.066875,-0.008174466901
0.06689583333,-0.008225374855
0.06691666667,-0.008266130462
0.0669375,-0.008297782391
0.06695833333,-0.008332943544
0.06697916667,-0.008365489542
0.067,-0.00844669994
0.06702083333,-0.008480700664
0.06704166667,-0.008489275351
0.0670625,-0.008542581461
0.06708333333,-0.008584447205
0.06710416667,-0.008651301265
0.067125,-0.008715506643
0.06714583333,-0.008786235936
0.06716666667,-0.008840740658
0.0671875,-0.008964575827
0.06720833333,-0.008966854773
0.06722916667,-0.009036858566
0.06725,-0.009025102481
0.06727083333,-0.009072178043
0.06729166667,-0.009106280282
0.0673125,-0.009167980403
0.06733333333,-0.009187477641
0.06735416667,-0.009245241061
0.067375,-0.009287294
0.06739583333,-0.00931632705
0.06741666667,-0.009342970327
0.0674375,-0.009297419339
0.06745833333,-0.009324233979
0.06747916667,-0.009360188618
0.0675,-0.009408110753
0.06752083333,-0.00941522792
0.06754166667,-0.009447023273
0.0675625,-0.009469644167
0.06758333333,-0.009552238509
0.06760416667,-0.009608320892
0.067625,-0.009662178345
0.06764583333,-0.009674606845
0.06766666667,-0.009731817991
0.0676875,-0.009693269618
0.06770833333,-0.009680818766
0.06772916667,-0.009668838233
0.06775,-0.009744618088
0.06777083333,-0.009740013629
0.06779166667,-0.009709486738
0.0678125,-0.009684385732
0.06783333333,-0.009644652717
0.06785416667,-0.009667245671
0.067875,-0.009630809538
0.06789583333,-0.009661374614
0.06791666667,-0.009592430666
0.0679375,-0.009675744921
0.06795833333,-0.009696049616
0.06797916667,-0.009766619653
0.068,-0.009724208154
0.06802083333,-0.00971912872
0.06804166667,-0.009757117368
0.0680625,-0.009752861224
0.06808333333,-0.009714277461
0.06810416667,-0.009697134607
0.068125,-0.00966067519
0.06814583333,-0.009673564695
0.06816666667,-0.00969310943
0.0681875,-0.009696885943
0.06820833333,-0.009737573564
0.06822916667,-0.009684300981
0.06825,-0.00975000672
0.06827083333,-0.009746441618
0.06829166667,-0.00978968665
0.0683125,-0.009877456352
0.06833333333,-0.009892357513
0.06835416667,-0.009884099476
0.068375,-0.009963697754
0.06839583333,-0.009929321706
0.06841666667,-0.009969199076
0.0684375,-0.009959137067
0.06845833333,-0.009992737323
0.06847916667,-0.01001182385
0.0685,-0.009955109097
0.06852083333,-0.009936938994
0.06854166667,-0.009879390709
0.0685625,-0.009935847484
0.06858333333,-0.009960656054
0.06860416667,-0.009992288426
0.068625,-0.009978641756
0.06864583333,-0.009983642027
0.06866666667,-0.009961043485
0.0686875,-0.009985800833
0.06870833333,-0.009944797494
0.06872916667,-0.00993247889
0.06875,-0.009889180772
0.06877083333,-0.009895592928
0.06879166667,-0.009871358052
0.0688125,-0.009815388359
0.06883333333,-0.009803552181
0.06885416667,-0.009748602286
0.068875,-0.009684052318
0.06889583333,-0.009658545256
0.06891666667,-0.009632053785
0.0689375,-0.009600347839
0.06895833333,-0.009612472728
0.06897916667,-0.009551944211
0.069,-0.009500895627
0.06902083333,-0.009427817538
0.06904166667,-0.009423334152
0.0690625,-0.009380339645
0.06908333333,-0.009356803261
0.06910416667,-0.0092684431
0.069125,-0.009232643992
0.06914583333,-0.009169997647
0.06916666667,-0.009170531295
0.0691875,-0.009111579508
0.06920833333,-0.009085454978
0.06922916667,-0.009023042396
0.06925,-0.008941503242
0.06927083333,-0.008918290958
0.06929166667,-0.00878904853
0.0693125,-0.008720465936
0.06933333333,-0.008670665324
0.06935416667,-0.008674667217
0.069375,-0.008603559807
0.06939583333,-0.008525945246
0.06941666667,-0.008445910178
0.0694375,-0.008379426785
0.06945833333,-0.008253430948
0.06947916667,-0.008169351146
0.0695,-0.008021986112
0.06952083333,-0.007981305942
0.06954166667,-0.007862311788
0.0695625,-0.00776904868
0.06958333333,-0.00762087293
0.06960416667,-0.007500875741
0.069625,-0.007445886731
0.06964583333,-0.007294219453
0.06966666667,-0.007234714925
0.0696875,-0.007132428233
0.06970833333,-0.007029877976
0.06972916667,-0.006979833823
0.06975,-0.006880856119
0.06977083333,-0.006791153457
0.06979166667,-0.006714368239
0.0698125,-0.006606781855
0.06983333333,-0.006562262308
0.06985416667,-0.006423344836
0.069875,-0.006348705851
0.06989583333,-0.006211823784
0.06991666667,-0.006121579558
0.0699375,-0.006007242016
0.06995833333,-0.005931558553
0.06997916667,-0.005841421895
0.07,-0.005803907756
0.07002083333,-0.005778037943
0.07004166667,-0.00573931681
0.0700625,-0.005756116007
0.07008333333,-0.005688932259
0.07010416667,-0.005599204451
0.070125,-0.005495928228
0.07014583333,-0.00544366613
0.07016666667,-0.005304291844
0.0701875,-0.005197920837
0.07020833333,-0.005081634037
0.07022916667,-0.005058015697
0.07025,-0.004939774517
0.07027083333,-0.004835748114
0.07029166667,-0.004692659713
0.0703125,-0.004597490188
0.07033333333,-0.004505221266
0.07035416667,-0.004443853628
0.070375,-0.004346157424
0.07039583333,-0.00429248251
0.07041666667,-0.004163553007
0.0704375,-0.004116631579
0.07045833333,-0.004072479904
0.07047916667,-0.003947395831
0.0705,-0.003928191494
0.07052083333,-0.003733173013
0.07054166667,-0.003724509617
0.0705625,-0.003610699903
0.07058333333,-0.00348919956
0.07060416667,-0.003368153237
0.070625,-0.003270258196
0.07064583333,-0.003253928851
0.07066666667,-0.003211128525
0.0706875,-0.003112813924
0.07070833333,-0.003118798137
0.07072916667,-0.003001251724
0.07075,-0.002961356426
0.07077083333,-0.002995830961
0.07079166667,-0.002922930988
0.0708125,-0.002875718521
0.07083333333,-0.002827208489
0.07085416667,-0.002771021798
0.070875,-0.002695443574
0.07089583333,-0.002667563502
0.07091666667,-0.002632711316
0.0709375,-0.002645679051
0.07095833333,-0.002547590528
0.07097916667,-0.002555755433
0.071,-0.002465617843
0.07102083333,-0.002502394142
0.07104166667,-0.002463976853
0.0710625,-0.002451508539
0.07108333333,-0.002430622932
0.07110416667,-0.002358403988
0.071125,-0.002266626572
0.07114583333,-0.002204033546
0.07116666667,-0.002120606368
0.0711875,-0.002081795363
0.07120833333,-0.002041897271
0.07122916667,-0.001960071502
0.07125,-0.001915136003
0.07127083333,-0.00181495538
0.07129166667,-0.001764286542
0.0713125,-0.001638788148
0.07133333333,-0.001598987612
0.07135416667,-0.001464223373
0.071375,-0.001440545428
0.07139583333,-0.001350703882
0.07141666667,-0.00135699613
0.0714375,-0.00126102136
0.07145833333,-0.00118274428
0.07147916667,-0.001091631828
0.0715,-0.0009916526033
0.07152083333,-0.0008984906017
0.07154166667,-0.0007548193098
0.0715625,-0.0007790265954
0.07158333333,-0.0007658131653
0.07160416667,-0.0006354144425
0.071625,-0.0005573567469
0.07164583333,-0.0004739476135
0.07166666667,-0.0003519758466
0.0716875,-0.0003472718818
0.07170833333,-0.0001487348927
0.07172916667,-0.0001571001776
0.07175,-6.672705058e-05
0.07177083333,1.136893661e-05
0.07179166667,5.319980846e-05
0.0718125,8.412348689e-05
0.07183333333,0.000163025572
0.07185416667,0.0001678259869
0.071875,0.0002696293232
0.07189583333,0.000295402453
0.07191666667,0.0003659838985
0.0719375,0.000396213436
0.07195833333,0.0004489010025
0.07197916667,0.0005187049392
0.072,0.0005078005488
0.07202083333,0.0005599974538
0.07204166667,0.0005661937757
0.0720625,0.0006396198878
0.07208333333,0.0006813200889
0.07210416667,0.0007492448785
0.072125,0.0007297294214
0.07214583333,0.0008342953515
0.07216666667,0.0008676857688
0.0721875,0.001002785517
0.07220833333,0.001082623377
0.07222916667,0.001176405232
0.07225,0.001250597415
0.07227083333,0.001420178334
0.07229166667,0.001532059512
0.0723125,0.001709688804
0.07233333333,0.001796648605
0.07235416667,0.001852873364
0.072375,0.001998531166
0.07239583333,0.002101254649
0.07241666667,0.00225466257
0.0724375,0.002351404168
0.07245833333,0.002528465353
0.07247916667,0.002640940715
0.0725,0.002818476874
0.07252083333,0.002977886703
0.07254166667,0.003184839152
0.0725625,0.003239136655
0.07258333333,0.003434254555
0.07260416667,0.003588656196
0.072625,0.003704213072
0.07264583333,0.003764197463
0.07266666667,0.003862924641
0.0726875,0.003895997535
0.07270833333,0.003909516614
0.07272916667,0.004009971395
0.07275,0.004005296156
0.07277083333,0.004037605599
0.07279166667,0.004053382203
0.0728125,0.004073366523
0.07283333333,0.004175161943
0.07285416667,0.00422121305
0.072875,0.004301694222
0.07289583333,0.004444110207
0.07291666667,0.004568009172
0.0729375,0.004794886336
0.07295833333,0.004851690959
0.07297916667,0.005008051172
0.073,0.005123514216
0.07302083333,0.005267519038
0.07304166667,0.005436873529
0.0730625,0.005567662884
0.07308333333,0.005675998051
0.07310416667,0.005770565942
0.073125,0.005850981921
0.07314583333,0.005921672098
0.07316666667,0.005997130182
0.0731875,0.006082385778
0.07320833333,0.006206943188
0.07322916667,0.006293655373
0.07325,0.006425697822
0.07327083333,0.006517730653
0.07329166667,0.006611043587
0.0733125,0.006679032464
0.07333333333,0.006763968617
0.07335416667,0.006795176771
0.073375,0.006797004491
0.07339583333,0.006817640737
0.07341666667,0.006840506103
0.0734375,0.006878847722
0.07345833333,0.006867838092
0.07347916667,0.006915919483
0.0735,0.006944928784
0.07352083333,0.006911212578
0.07354166667,0.006938340608
0.0735625,0.006921585184
0.07358333333,0.00691140769
0.07360416667,0.00693497574
0.073625,0.006962656043
0.07364583333,0.006992544979
0.07366666667,0.00700293202
0.0736875,0.007067471743
0.07370833333,0.00704369368
0.07372916667,0.007054421119
0.07375,0.007036046591
0.07377083333,0.006980965845
0.07379166667,0.006992944982
0.0738125,0.006994773634
0.07383333333,0.006972985808
0.07385416667,0.006985664368
0.073875,0.006936497986
0.07389583333,0.006921224296
0.07391666667,0.006849760655
0.0739375,0.006802204531
0.07395833333,0.006764985621
0.07397916667,0.00669279974
0.074,0.00664324034
0.07402083333,0.006553788669
0.07404166667,0.006499605719
0.0740625,0.006449330132
0.07408333333,0.006437183358
0.07410416667,0.006457960699
0.074125,0.006458919495
0.07414583333,0.006463177502
0.07416666667,0.00648866035
0.0741875,0.006490764208
0.07420833333,0.006561500952
0.07422916667,0.006525513716
0.07425,0.006485119928
0.07427083333,0.006435084157
0.07429166667,0.006415050942
0.0743125,0.00640282128
0.07433333333,0.006337950006
0.07435416667,0.006324897055
0.074375,0.006283207331
0.07439583333,0.00629722327
0.07441666667,0.006285103504
0.0744375,0.006237268914
0.07445833333,0.006217622198
0.07447916667,0.006199773401
0.0745,0.006182359066
0.07452083333,0.006210588384
0.07454166667,0.006187672261
0.0745625,0.006234480068
0.07458333333,0.00623162603
0.07460416667,0.006227004807
0.074625,0.006196187809
0.07464583333,0.006091887131
0.07466666667,0.006060201209
0.0746875,0.006027778145
0.07470833333,0.00595623767
0.07472916667,0.005893012043
0.07475,0.005836560857
0.07477083333,0.005800820887
0.07479166667,0.005787164439
0.0748125,0.005717946682
0.07483333333,0.005673902109
0.07485416667,0.005637173541
0.074875,0.005624002777
0.07489583333,0.005592911504
0.07491666667,0.005594239105
0.0749375,0.005590089597
0.07495833333,0.005622113124
0.07497916667,0.005660934839
0.075,0.005720092449
0.07502083333,0.005764963105
0.07504166667,0.005875383038
0.0750625,0.005953661632
0.07508333333,0.00601031445
0.07510416667,0.006079365499
0.075125,0.006157513242
0.07514583333,0.006248831749
0.07516666667,0.006268251222
0.0751875,0.006339248735
0.07520833333,0.006371506955
0.07522916667,0.006405336782
0.07525,0.006454312708
0.07527083333,0.006481208839
0.07529166667,0.006494872272
0.0753125,0.006525553297
0.07533333333,0.006514654495
0.07535416667,0.006497729104
0.075375,0.006469646003
0.07539583333,0.006483501755
0.07541666667,0.006505020428
0.0754375,0.006543576252
0.07545833333,0.006555046421
0.07547916667,0.006602015812
0.0755,0.006602289155
0.07552083333,0.006589668803
0.07554166667,0.006616892759
0.0755625,0.006622934714
0.07558333333,0.006683354266
0.07560416667,0.006684580818
0.075625,0.006719253492
0.07564583333,0.006724982522
0.07566666667,0.006706093904
0.0756875,0.006723876577
0.07570833333,0.006770761684
0.07572916667,0.006792522501
0.07575,0.006808215287
0.07577083333,0.006818182301
0.07579166667,0.006861498579
0.0758125,0.006909658667
0.07583333333,0.006951378658
0.07585416667,0.007014031522
0.075875,0.007094583008
0.07589583333,0.007166264579
0.07591666667,0.007232457865
0.0759375,0.007341771387
0.07595833333,0.007413862739
0.07597916667,0.007493897341
0.076,0.007546358742
0.07602083333,0.007583445869
0.07604166667,0.007643038873
0.0760625,0.00769943418
0.07608333333,0.007754111197
0.07610416667,0.007764100563
0.076125,0.007792196237
0.07614583333,0.007810642943
0.07616666667,0.007782507688
0.0761875,0.007839228027
0.07620833333,0.007839428261
0.07622916667,0.007846897468
0.07625,0.007823462598
0.07627083333,0.007811534218
0.07629166667,0.007770190481
0.0763125,0.007754653692
0.07633333333,0.007722140756
0.07635416667,0.007718125824
0.076375,0.007731005549
0.07639583333,0.00771813374
0.07641666667,0.007753417827
0.0764375,0.007723337505
0.07645833333,0.007774137892
0.07647916667,0.00779370591
0.0765,0.007798336446
0.07652083333,0.00780661311
0.07654166667,0.00779267028
0.0765625,0.00778161129
0.07658333333,0.007745467592
0.07660416667,0.00773721328
0.076625,0.007757956162
0.07664583333,0.007751165889
0.07666666667,0.007766016293
0.0766875,0.007784165442
0.07670833333,0.007744841278
0.07672916667,0.007722918876
0.07675,0.007714819629
0.07677083333,0.007725057192
0.07679166667,0.007736865431
0.0768125,0.007755520288
0.07683333333,0.007767683826
0.07685416667,0.007791328244
0.076875,0.007747942582
0.07689583333,0.007700793445
0.07691666667,0.007646398153
0.0769375,0.007604449522
0.07695833333,0.007546649314
0.07697916667,0.007505149581
0.077,0.007452630904
0.07702083333,0.00744278403
0.07704166667,0.007378515787
0.0770625,0.007379576564
0.07708333333,0.007371714339
0.07710416667,0.007347117644
0.077125,0.007358305622
0.07714583333,0.007367005106
0.07716666667,0.007371459156
0.0771875,0.007370592095
0.07720833333,0.007410541642
0.07722916667,0.007441910449
0.07725,0.007517298684
0.07727083333,0.007528431248
0.07729166667,0.007610870525
0.0773125,0.007648179773
0.07733333333,0.007692500949
0.07735416667,0.007734079845
0.077375,0.007806824986
0.07739583333,0.007833544165
0.07741666667,0.007914826274
0.0774375,0.007932401262
0.07745833333,0.00791875273
0.07747916667,0.007879283279
0.0775,0.007890674286
0.07752083333,0.007926777937
0.07754166667,0.007978457958
0.0775625,0.00805196818
0.07758333333,0.00808073394
0.07760416667,0.008095546626
0.077625,0.008076672442
0.07764583333,0.008076234721
0.07766666667,0.008057690226
0.0776875,0.008044981398
0.07770833333,0.008001226
0.07772916667,0.008051061071
0.07775,0.008026462048
0.07777083333,0.008047538809
0.07779166667,0.008039897308
0.0778125,0.007981235161
0.07783333333,0.007938396186
0.07785416667,0.007946140133
0.077875,0.007960682735
0.07789583333,0.008021149784
0.07791666667,0.008067142218
0.0779375,0.008098934777
0.07795833333,0.008094206452
0.07797916667,0.008115201257
0.078,0.008136455901
0.07802083333,0.008123915642
0.07804166667,0.008179751225
0.0780625,0.008218658157
0.07808333333,0.008282500319
0.07810416667,0.008280836046
0.078125,0.008306850679
0.07814583333,0.008299874142
0.07816666667,0.00831715297
0.0781875,0.008272403851
0.07820833333,0.008236796595
0.07822916667,0.00819663424
0.07825,0.008185800165
0.07827083333,0.008179754019
0.07829166667,0.008150561713
0.0783125,0.008125067689
0.07833333333,0.008068189025
0.07835416667,0.008044669405
0.078375,0.008019368164
0.07839583333,0.008035436273
0.07841666667,0.008029327728
0.0784375,0.00806011539
0.07845833333,0.008060432971
0.07847916667,0.008081534877
0.0785,0.008054781705
0.07852083333,0.00807194598
0.07854166667,0.008049856871
0.0785625,0.008074338548
0.07858333333,0.008038998581
0.07860416667,0.008014797233
0.078625,0.007976566441
0.07864583333,0.007927814499
0.07866666667,0.007889072411
0.0786875,0.007863187231
0.07870833333,0.007867419161
0.07872916667,0.007864812389
0.07875,0.0078021558
0.07877083333,0.007763650268
0.07879166667,0.007768772077
0.0788125,0.007695764303
0.07883333333,0.007636588067
0.07885416667,0.007559219841
0.078875,0.0075628208
0.07889583333,0.007483356632
0.07891666667,0.007489478216
0.0789375,0.007459614892
0.07895833333,0.007418272551
0.07897916667,0.007345940452
0.079,0.007272148505
0.07902083333,0.007197380997
0.07904166667,0.00714217918
0.0790625,0.007087427191
0.07908333333,0.007040252909
0.07910416667,0.007046373561
0.079125,0.006995216478
0.07914583333,0.006964844652
0.07916666667,0.006940301508
0.0791875,0.006918368395
0.07920833333,0.006875584368
0.07922916667,0.006888883188
0.07925,0.006832651328
0.07927083333,0.006808040664
0.07929166667,0.006747726817
0.0793125,0.006718844641
0.07933333333,0.006626883056
0.07935416667,0.006522909738
0.079375,0.006479158998
0.07939583333,0.006386999507
0.07941666667,0.00628474541
0.0794375,0.006202880293
0.07945833333,0.006152368616
0.07947916667,0.006111071911
0.0795,0.006075822283
0.07952083333,0.006032176316
0.07954166667,0.006015839987
0.0795625,0.006013459526
0.07958333333,0.006035705097
0.07960416667,0.005968774203
0.079625,0.006022336427
0.07964583333,0.005982202943
0.07966666667,0.006043059751
0.0796875,0.006079955492
0.07970833333,0.006053420715
0.07972916667,0.006027877331
0.07975,0.005987740122
0.07977083333,0.005978953093
0.07979166667,0.005958636757
0.0798125,0.005973407999
0.07983333333,0.006015125662
0.07985416667,0.006040635984
0.079875,0.006056414917
0.07989583333,0.0060334187
0.07991666667,0.005979206413
0.0799375,0.005996400956
0.07995833333,0.005935068242
0.07997916667,0.005954113323
0.08,0.005960044451
0.08002083333,0.005936351605
0.08004166667,0.005873888265
0.0800625,0.005812658928
0.08008333333,0.005774398334
0.08010416667,0.005739391781
0.080125,0.0056739063
0.08014583333,0.005639631767
0.08016666667,0.005600122269
0.0801875,0.005547714885
0.08020833333,0.005506965332
0.08022916667,0.005439681932
0.08025,0.0054142843
0.08027083333,0.005386301316
0.08029166667,0.005348432343
0.0803125,0.005300122313
0.08033333333,0.005305564497
0.08035416667,0.005275261588
0.080375,0.005263895262
0.08039583333,0.005252935458
0.08041666667,0.005283430219
0.0804375,0.005218755454
0.08045833333,0.005219711922
0.08047916667,0.005209352355
0.0805,0.005179415923
0.08052083333,0.005163328722
0.08054166667,0.005173376761
0.0805625,0.005119636189
0.08058333333,0.005108138081
0.08060416667,0.005073055625
0.080625,0.00502799591
0.08064583333,0.005035708193
0.08066666667,0.004984633997
0.0806875,0.00500499364
0.08070833333,0.004933451302
0.08072916667,0.004949220456
0.08075,0.004876428284
0.08077083333,0.004830189049
0.08079166667,0.004811238032
0.0808125,0.004752880428
0.08083333333,0.0046551181
0.08085416667,0.004652379081
0.080875,0.004616160411
0.08089583333,0.004582245369
0.08091666667,0.004497865681
0.0809375,0.004428047687
0.08095833333,0.004338660743
0.08097916667,0.004252582323
0.081,0.004183408804
0.08102083333,0.0041116965
0.08104166667,0.004078868311
0.0810625,0.003966442309
0.08108333333,0.003905145684
0.08110416667,0.003803848289
0.081125,0.003776766825
0.08114583333,0.003692158731
0.08116666667,0.003633302404
0.0811875,0.00357760326
0.08120833333,0.003553988412
0.08122916667,0.003474391066
0.08125,0.003424075665
0.08127083333,0.003301418619
0.08129166667,0.003168476047
0.0813125,0.003050461644
0.08133333333,0.002948408481
0.08135416667,0.002884118352
0.081375,0.00281062373
0.08139583333,0.002783752745
0.08141666667,0.00269922521
0.0814375,0.002661612118
0.08145833333,0.002580243628
0.08147916667,0.002474409528
0.0815,0.002413200447
0.08152083333,0.002320377622
0.08154166667,0.002196886111
0.0815625,0.002161666984
0.08158333333,0.002088177484
0.08160416667,0.002100644168
0.081625,0.002082772087
0.08164583333,0.00204786798
0.08166666667,0.002003158676
0.0816875,0.00197100779
0.08170833333,0.001961133443
0.08172916667,0.00196863967
0.08175,0.00201428216
0.08177083333,0.00205095415
0.08179166667,0.002074466553
0.0818125,0.002059287624
0.08183333333,0.002080903854
0.08185416667,0.001986065879
0.081875,0.001961550675
0.08189583333,0.001839099685
0.08191666667,0.001817399287
0.0819375,0.001739198691
0.08195833333,0.00171145366
0.08197916667,0.001648862031
0.082,0.001601279248
0.08202083333,0.001557014184
0.08204166667,0.001518286648
0.0820625,0.001485203509
0.08208333333,0.001402697526
0.08210416667,0.001301967888
0.082125,0.001238809782
0.08214583333,0.001195050543
0.08216666667,0.001115035848
0.0821875,0.001049838262
0.08220833333,0.0009679105133
0.08222916667,0.000904925575
0.08225,0.0007631819462
0.08227083333,0.0007012753631
0.08229166667,0.0006458775024
0.0823125,0.0006129725371
0.08233333333,0.0005383398384
0.08235416667,0.0005594017566
0.082375,0.0005462947884
0.08239583333,0.0005502122222
0.08241666667,0.00055597967
0.0824375,0.0005762750516
0.08245833333,0.0005235625431
0.08247916667,0.0005172342062
0.0825,0.0005044926656
0.08252083333,0.0004496212932
0.08254166667,0.0004241926363
0.0825625,0.0003721956164
0.08258333333,0.0003086463548
0.08260416667,0.0002818709763
0.082625,0.0002441446704
0.08264583333,0.0001950312435
0.08266666667,0.0002176299604
0.0826875,0.0001478349877
0.08270833333,0.0001944800897
0.08272916667,0.0001148021984
0.08275,7.657171955e-05
0.08277083333,-1.207964124e-05
0.08279166667,-6.306691648e-05
0.0828125,-9.787192539e-05
0.08283333333,-0.0001809317328
0.08285416667,-0.0002256048465
0.082875,-0.0003071845276
0.08289583333,-0.0003769287141
0.08291666667,-0.0004096763441
0.0829375,-0.0004990629968
0.08295833333,-0.0005534559605
0.08297916667,-0.0005339143099
0.083,-0.0005802838132
0.08302083333,-0.000585932401
0.08304166667,-0.0006564971409
0.0830625,-0.0006589720724
0.08308333333,-0.0006928903167
0.08310416667,-0.0007317425916
0.083125,-0.0007493251469
0.08314583333,-0.0007877167081
0.08316666667,-0.0008300016634
0.0831875,-0.0008745276718
0.08320833333,-0.0009189764387
0.08322916667,-0.0009226546972
0.08325,-0.0009777970845
0.08327083333,-0.001049058046
0.08329166667,-0.001100515481
0.0833125,-0.001183603075
0.08333333333,-0.001217134297
0.08335416667,-0.001287127845
0.083375,-0.001354591339
0.08339583333,-0.001412463025
0.08341666667,-0.001468650298
0.0834375,-0.001540025813
0.08345833333,-0.001586706843
0.08347916667,-0.001659104833
0.0835,-0.001704285271
0.08352083333,-0.001774587319
0.08354166667,-0.001823016326
0.0835625,-0.001880737953
0.08358333333,-0.001973039936
0.08360416667,-0.002040207153
0.083625,-0.002084931592
0.08364583333,-0.002160103759
0.08366666667,-0.002195418347
0.0836875,-0.002272223355
0.08370833333,-0.002322306624
0.08372916667,-0.002310367068
0.08375,-0.002339052036
0.08377083333,-0.002303566085
0.08379166667,-0.002334606135
0.0838125,-0.002342096064
0.08383333333,-0.002319609048
0.08385416667,-0.00234322669
0.083875,-0.002339964733
0.08389583333,-0.002376989461
0.08391666667,-0.002415755065
0.0839375,-0.002436110517
0.08395833333,-0.002485441044
0.08397916667,-0.002513824962
0.084,-0.002565064235
0.08402083333,-0.002603277098
0.08404166667,-0.002629146446
0.0840625,-0.002650159877
0.08408333333,-0.002662967658
0.08410416667,-0.002736149123
0.084125,-0.002771544736
0.08414583333,-0.002835487248
0.08416666667,-0.002898165025
0.0841875,-0.002982470673
0.08420833333,-0.003024744336
0.08422916667,-0.003082628362
0.08425,-0.003190688556
0.08427083333,-0.003268946428
0.08429166667,-0.003341122298
0.0843125,-0.003437726758
0.08433333333,-0.003497739322
0.08435416667,-0.003567192005
0.084375,-0.003623377765
0.08439583333,-0.003646403784
0.08441666667,-0.003707580036
0.0844375,-0.003737168154
0.08445833333,-0.00378410751
0.08447916667,-0.003835327923
0.0845,-0.003837276716
0.08452083333,-0.003845149418
0.08454166667,-0.003864540951
0.0845625,-0.00380459521
0.08458333333,-0.003775260644
0.08460416667,-0.003725497983
0.084625,-0.003702149726
0.08464583333,-0.003677270841
0.08466666667,-0.003652669024
0.0846875,-0.003625228303
0.08470833333,-0.003636377864
0.08472916667,-0.003637684043
0.08475,-0.003627280938
0.08477083333,-0.0037030885
0.08479166667,-0.003734159516
0.0848125,-0.003772212891
0.08483333333,-0.003778789425
0.08485416667,-0.003775152378
0.084875,-0.003789691487
0.08489583333,-0.003786113346
0.08491666667,-0.003782124957
0.0849375,-0.003807089524
0.08495833333,-0.003845209489
0.08497916667,-0.003887870349
0.085,-0.003931502812
0.08502083333,-0.004024479073
0.08504166667,-0.00407346664
0.0850625,-0.004136253148
0.08508333333,-0.004174512811
0.08510416667,-0.004225646611
0.085125,-0.004253662191
0.08514583333,-0.004283022601
0.08516666667,-0.004355125129
0.0851875,-0.004412882496
0.08520833333,-0.004474377725
0.08522916667,-0.004501820076
0.08525,-0.004512874875
0.08527083333,-0.004534356762
0.08529166667,-0.004531912971
0.0853125,-0.004544359632
0.08533333333,-0.004549317528
0.08535416667,-0.004528533202
0.085375,-0.004530611914
0.08539583333,-0.004466667771
0.08541666667,-0.004420164041
0.0854375,-0.0043208641
0.08545833333,-0.004250497092
0.08547916667,-0.00421656156
0.0855,-0.004187350627
0.08552083333,-0.004158722702
0.08554166667,-0.004126857966
0.0855625,-0.004081018269
0.08558333333,-0.004046260845
0.08560416667,-0.004064226523
0.085625,-0.004069230985
0.08564583333,-0.004113895353
0.08566666667,-0.004147219006
0.0856875,-0.004189544357
0.08570833333,-0.004235203378
0.08572916667,-0.004230547696
0.08575,-0.004234666936
0.08577083333,-0.004257715773
0.08579166667,-0.004238212947
0.0858125,-0.004270209
0.08583333333,-0.004293875769
0.08585416667,-0.004328248557
0.085875,-0.004347141366
0.08589583333,-0.004394439049
0.08591666667,-0.004420564976
0.0859375,-0.004466539249
0.08595833333,-0.004558812361
0.08597916667,-0.004598999862
0.086,-0.004655951634
0.08602083333,-0.004742448218
0.08604166667,-0.004765057936
0.0860625,-0.004793044645
0.08608333333,-0.004805707373
0.08610416667,-0.004776356742
0.086125,-0.004774539266
0.08614583333,-0.004733921029
0.08616666667,-0.004707943182
0.0861875,-0.004607209004
0.08620833333,-0.004543128889
0.08622916667,-0.004459420685
0.08625,-0.004371378571
0.08627083333,-0.00432288507
0.08629166667,-0.004259384703
0.0863125,-0.004255941138
0.08633333333,-0.004237535875
0.08635416667,-0.004247853998
0.086375,-0.004300953355
0.08639583333,-0.004278079141
0.08641666667,-0.004366802983
0.0864375,-0.004400304984
0.08645833333,-0.004412041977
0.08647916667,-0.004500539973
0.0865,-0.004525448196
0.08652083333,-0.004581690766
0.08654166667,-0.004629583564
0.0865625,-0.004669411574
0.08658333333,-0.004675823264
0.08660416667,-0.004694386385
0.086625,-0.004653321113
0.08664583333,-0.004650617484
0.08666666667,-0.004662108608
0.0866875,-0.004641616717
0.08670833333,-0.004639142659
0.08672916667,-0.004558202345
0.08675,-0.004537924659
0.08677083333,-0.004535111133
0.08679166667,-0.004529985599
0.0868125,-0.004567117896
0.08683333333,-0.004576697946
0.08685416667,-0.00462206779
0.086875,-0.00467482768
0.08689583333,-0.004671809729
0.08691666667,-0.004698828794
0.0869375,-0.004687803332
0.08695833333,-0.004745254759
0.08697916667,-0.004775983747
0.087,-0.004813870415
0.08702083333,-0.004856048618
0.08704166667,-0.004890545737
0.0870625,-0.004875481594
0.08708333333,-0.004911932163
0.08710416667,-0.00492196437
0.087125,-0.004967966117
0.08714583333,-0.005030567758
0.08716666667,-0.005088458769
0.0871875,-0.005187187344
0.08720833333,-0.005212505814
0.08722916667,-0.005257965531
0.08725,-0.005291529931
0.08727083333,-0.00534983445
0.08729166667,-0.005376319401
0.0873125,-0.005402129143
0.08733333333,-0.005412989762
0.08735416667,-0.005413134582
0.087375,-0.005391742103
0.08739583333,-0.005379376467
0.08741666667,-0.00534228934
0.0874375,-0.005342207849
0.08745833333,-0.005318302196
0.08747916667,-0.00531108398
0.0875,-0.005280157086
0.08752083333,-0.005211083218
0.08754166667,-0.00514853606
0.0875625,-0.005136129912
0.08758333333,-0.00508384034
0.08760416667,-0.005048036575
0.087625,-0.005040748045
0.08764583333,-0.005030845292
0.08766666667,-0.005067108199
0.0876875,-0.005061029457
0.08770833333,-0.00512279477
0.08772916667,-0.005129256286
0.08775,-0.005200955085
0.08777083333,-0.005266177002
0.08779166667,-0.00530193001
0.0878125,-0.005427713972
0.08783333333,-0.005472014658
0.08785416667,-0.005512392614
0.087875,-0.005602358375
0.08789583333,-0.005598519929
0.08791666667,-0.005708735436
0.0879375,-0.005737938453
0.08795833333,-0.005812386516
0.08797916667,-0.005855444819
0.088,-0.005919100251
0.08802083333,-0.006038180552
0.08804166667,-0.006011514924
0.0880625,-0.006087562069
0.08808333333,-0.00610164227
0.08810416667,-0.006147925276
0.088125,-0.006248767488
0.08814583333,-0.006313562859
0.08816666667,-0.006378825288
0.0881875,-0.006455304101
0.08820833333,-0.006454292219
0.08822916667,-0.006497635506
0.08825,-0.006491453387
0.08827083333,-0.006524196826
0.08829166667,-0.006562780589
0.0883125,-0.006585021038
0.08833333333,-0.006636278704
0.08835416667,-0.006653290242
0.088375,-0.00667654397
