time,data
0,2.448769862e-07
2.083333333e-05,2.369550316e-07
4.166666667e-05,2.299987898e-07
6.25e-05,2.241146433e-07
8.333333333e-05,2.182629686e-07
0.0001041666667,2.117405415e-07
0.000125,2.04344488e-07
0.0001458333333,1.963991849e-07
0.0001666666667,1.888249557e-07
0.0001875,1.815561177e-07
0.0002083333333,1.743851641e-07
0.0002291666667,1.660399676e-07
0.00025,1.558653082e-07
0.0002708333333,1.43688581e-07
0.0002916666667,1.29954131e-07
0.0003125,1.156539469e-07
0.0003333333333,1.00779836e-07
0.0003541666667,8.542311747e-08
0.000375,6.863826485e-08
0.0003958333333,5.023488825e-08
0.0004166666667,3.031324169e-08
0.0004375,9.363656517e-09
0.0004583333333,-1.168894137e-08
0.0004791666667,-3.29882468e-08
0.0005,-5.440838891e-08
0.0005208333333,-7.69308599e-08
0.0005416666667,-1.008596016e-07
0.0005625,-1.265476328e-07
0.0005833333333,-1.539571457e-07
0.0006041666667,-1.825141425e-07
0.000625,-2.122437621e-07
0.0006458333333,-2.425748562e-07
0.0006666666667,-2.740717093e-07
0.0006875,-3.067183343e-07
0.0007083333333,-3.409529086e-07
0.0007291666667,-3.765709664e-07
0.00075,-4.125836028e-07
0.0007708333333,-4.482817815e-07
0.0007916666667,-4.822756523e-07
0.0008125,-5.15122224e-07
0.0008333333333,-5.471565032e-07
0.0008541666667,-5.797746212e-07
0.000875,-6.133448096e-07
0.0008958333333,-6.469281857e-07
0.0009166666667,-6.796690855e-07
0.0009375,-7.100550761e-07
0.0009583333333,-7.392183647e-07
0.0009791666667,-7.683325407e-07
0.001,-7.992687188e-07
0.001020833333,-8.321818541e-07
0.001041666667,-8.649468555e-07
0.0010625,-8.955004205e-07
0.001083333333,-9.216047943e-07
0.001104166667,-9.443947988e-07
0.001125,-9.654523865e-07
0.001145833333,-9.867331983e-07
0.001166666667,-1.007844162e-06
0.0011875,-1.026191512e-06
0.001208333333,-1.039423864e-06
0.001229166667,-1.04630783e-06
0.00125,-1.049303819e-06
0.001270833333,-1.051237746e-06
0.001291666667,-1.054715767e-06
0.0013125,-1.05895117e-06
0.001333333333,-1.061110311e-06
0.001354166667,-1.058775638e-06
0.001375,-1.050889864e-06
0.001395833333,-1.040278107e-06
0.001416666667,-1.028936026e-06
0.0014375,-1.018489343e-06
0.001458333333,-1.006748676e-06
0.001479166667,-9.902066722e-07
0.0015,-9.666551932e-07
0.001520833333,-9.35522678e-07
0.001541666667,-9.000802947e-07
0.0015625,-8.62493664e-07
0.001583333333,-8.243947605e-07
0.001604166667,-7.844539027e-07
0.001625,-7.404281632e-07
0.001645833333,-6.916540087e-07
0.001666666667,-6.38499273e-07
0.0016875,-5.840767017e-07
0.001708333333,-5.298305723e-07
0.001729166667,-4.768315307e-07
0.00175,-4.233315281e-07
0.001770833333,-3.674205686e-07
0.001791666667,-3.076947053e-07
0.0018125,-2.434821056e-07
0.001833333333,-1.762308983e-07
0.001854166667,-1.062415507e-07
0.001875,-3.492607803e-08
0.001895833333,3.82911054e-08
0.001916666667,1.139286567e-07
0.0019375,1.924270379e-07
0.001958333333,2.747103736e-07
0.001979166667,3.588374682e-07
0.002,4.437904693e-07
0.002020833333,5.26169174e-07
0.002041666667,6.049184549e-07
0.0020625,6.803155657e-07
0.002083333333,7.540686511e-07
0.002104166667,8.292966527e-07
0.002125,9.058339856e-07
0.002145833333,9.827921303e-07
0.002166666667,1.056787937e-06
0.0021875,1.126363031e-06
0.002208333333,1.193275352e-06
0.002229166667,1.260802719e-06
0.00225,1.333100954e-06
0.002270833333,1.40932093e-06
0.002291666667,1.485993494e-06
0.0023125,1.55704538e-06
0.002333333333,1.619588943e-06
0.002354166667,1.675021963e-06
0.002375,1.727727067e-06
0.002395833333,1.781473316e-06
0.002416666667,1.834899649e-06
0.0024375,1.883316941e-06
0.002458333333,1.920823706e-06
0.002479166667,1.946472594e-06
0.0025,1.964512876e-06
0.002520833333,1.981674359e-06
0.002541666667,2.002934252e-06
0.0025625,2.026231641e-06
0.002583333333,2.046762575e-06
0.002604166667,2.058311111e-06
0.002625,2.060581664e-06
0.002645833333,2.057549636e-06
0.002666666667,2.054400056e-06
0.0026875,2.05347601e-06
0.002708333333,2.050511739e-06
0.002729166667,2.03940931e-06
0.00275,2.014877737e-06
0.002770833333,1.977158263e-06
0.002791666667,1.93119854e-06
0.0028125,1.881794219e-06
0.002833333333,1.83191537e-06
0.002854166667,1.778817705e-06
0.002875,1.719635293e-06
0.002895833333,1.65187862e-06
0.002916666667,1.577481044e-06
0.0029375,1.500515054e-06
0.002958333333,1.424346351e-06
0.002979166667,1.350376465e-06
0.003,1.276048692e-06
0.003020833333,1.198338055e-06
0.003041666667,1.114235488e-06
0.0030625,1.022664037e-06
0.003083333333,9.246708146e-07
0.003104166667,8.212534226e-07
0.003125,7.146265375e-07
0.003145833333,6.045864893e-07
0.003166666667,4.91348942e-07
0.0031875,3.729029743e-07
0.003208333333,2.485932953e-07
0.003229166667,1.191950929e-07
0.00325,-1.223394097e-08
0.003270833333,-1.402343628e-07
0.003291666667,-2.618703263e-07
0.0033125,-3.765520944e-07
0.003333333333,-4.885618523e-07
0.003354166667,-6.031955877e-07
0.003375,-7.21962806e-07
0.003395833333,-8.433806897e-07
0.003416666667,-9.605250852e-07
0.0034375,-1.071096108e-06
0.003458333333,-1.176240062e-06
0.003479166667,-1.283533152e-06
0.0035,-1.399886855e-06
0.003520833333,-1.525457719e-06
0.003541666667,-1.653886557e-06
0.0035625,-1.774084922e-06
0.003583333333,-1.880301511e-06
0.003604166667,-1.97452232e-06
0.003625,-2.064844239e-06
0.003645833333,-2.158631787e-06
0.003666666667,-2.254154197e-06
0.0036875,-2.343477036e-06
0.003708333333,-2.415622248e-06
0.003729166667,-2.468873163e-06
0.00375,-2.509629212e-06
0.003770833333,-2.55096279e-06
0.003791666667,-2.600818789e-06
0.0038125,-2.657274763e-06
0.003833333333,-2.710923809e-06
0.003854166667,-2.751150987e-06
0.003875,-2.777018608e-06
0.003895833333,-2.794921556e-06
0.003916666667,-2.814822665e-06
0.0039375,-2.840657544e-06
0.003958333333,-2.865437637e-06
0.003979166667,-2.878940677e-06
0.004,-2.870585149e-06
0.004020833333,-2.842211188e-06
0.004041666667,-2.800589755e-06
0.0040625,-2.75626212e-06
0.004083333333,-2.713036565e-06
0.004104166667,-2.667263288e-06
0.004125,-2.612925755e-06
0.004145833333,-2.545267307e-06
0.004166666667,-2.467872946e-06
0.0041875,-2.387210543e-06
0.004208333333,-2.310447599e-06
0.004229166667,-2.239442665e-06
0.00425,-2.169655318e-06
0.004270833333,-2.095744776e-06
0.004291666667,-2.010625849e-06
0.0043125,-1.914835593e-06
0.004333333333,-1.808218485e-06
0.004354166667,-1.696063464e-06
0.004375,-1.579816853e-06
0.004395833333,-1.459993314e-06
0.004416666667,-1.335172442e-06
0.0044375,-1.200767883e-06
0.004458333333,-1.057306349e-06
0.004479166667,-9.051810821e-07
0.0045,-7.522111218e-07
0.004520833333,-6.059908628e-07
0.004541666667,-4.70543398e-07
0.0045625,-3.463052565e-07
0.004583333333,-2.231539042e-07
0.004604166667,-9.623486363e-08
0.004625,3.968255768e-08
0.004645833333,1.772152132e-07
0.004666666667,3.085287688e-07
0.0046875,4.290577635e-07
0.004708333333,5.427326073e-07
0.004729166667,6.633657108e-07
0.00475,7.993953659e-07
0.004770833333,9.524472375e-07
0.004791666667,1.108877541e-06
0.0048125,1.252984475e-06
0.004833333333,1.3766753e-06
0.004854166667,1.483391657e-06
0.004875,1.589463295e-06
0.004895833333,1.701957558e-06
0.004916666667,1.821528485e-06
0.0049375,1.930320423e-06
0.004958333333,2.015261543e-06
0.004979166667,2.072375992e-06
0.005,2.114030167e-06
0.005020833333,2.161748398e-06
0.005041666667,2.225278422e-06
0.0050625,2.303402425e-06
0.005083333333,2.377814553e-06
0.005104166667,2.43490399e-06
0.005125,2.473070481e-06
0.005145833333,2.50268954e-06
0.005166666667,2.541691629e-06
0.0051875,2.591468728e-06
0.005208333333,2.645695986e-06
0.005229166667,2.682760169e-06
0.00525,2.692233238e-06
0.005270833333,2.673748668e-06
0.005291666667,2.640617822e-06
0.0053125,2.608456725e-06
0.005333333333,2.580816499e-06
0.005354166667,2.554666025e-06
0.005375,2.516953145e-06
0.005395833333,2.464892304e-06
0.005416666667,2.401634902e-06
0.0054375,2.338273362e-06
0.005458333333,2.286311656e-06
0.005479166667,2.244185907e-06
0.0055,2.210628509e-06
0.005520833333,2.170485914e-06
0.005541666667,2.121594207e-06
0.0055625,2.058275413e-06
0.005583333333,1.984901701e-06
0.005604166667,1.906605803e-06
0.005625,1.823660796e-06
0.005645833333,1.740635639e-06
0.005666666667,1.65035874e-06
0.0056875,1.553041329e-06
0.005708333333,1.444606369e-06
0.005729166667,1.327854761e-06
0.00575,1.213546739e-06
0.005770833333,1.108082301e-06
0.005791666667,1.024271e-06
0.0058125,9.546496358e-07
0.005833333333,8.948678101e-07
0.005854166667,8.2945553e-07
0.005875,7.561436632e-07
0.005895833333,6.813413052e-07
0.005916666667,6.148339935e-07
0.0059375,5.671877261e-07
0.005958333333,5.275338708e-07
0.005979166667,4.839078542e-07
0.006,4.178342294e-07
0.006020833333,3.302581888e-07
0.006041666667,2.384476545e-07
0.0060625,1.611572316e-07
0.006083333333,1.169225143e-07
0.006104166667,9.218553032e-08
0.006125,7.554629633e-08
0.006145833333,4.623424843e-08
0.006166666667,1.078797673e-08
0.0061875,-1.174901243e-08
0.006208333333,-2.919577247e-09
0.006229166667,4.617985994e-08
0.00625,1.125476459e-07
0.006270833333,1.741281324e-07
0.006291666667,2.09711601e-07
0.0063125,2.257063016e-07
0.006333333333,2.445065377e-07
0.006354166667,2.829481502e-07
0.006375,3.486526055e-07
0.006395833333,4.188125331e-07
0.006416666667,4.797018391e-07
0.0064375,5.179211371e-07
0.006458333333,5.525315601e-07
0.006479166667,6.049252192e-07
0.0065,6.93353627e-07
0.006520833333,8.181727367e-07
0.006541666667,9.564532775e-07
0.0065625,1.094548111e-06
0.006583333333,1.217966997e-06
0.006604166667,1.339777782e-06
0.006625,1.471178052e-06
0.006645833333,1.617359544e-06
0.006666666667,1.777090574e-06
0.0066875,1.926227014e-06
0.006708333333,2.061616442e-06
0.006729166667,2.171148481e-06
0.00675,2.270638106e-06
0.006770833333,2.369588401e-06
0.006791666667,2.477702992e-06
0.0068125,2.600715334e-06
0.006833333333,2.729020252e-06
0.006854166667,2.863052941e-06
0.006875,2.992283271e-06
0.006895833333,3.121258942e-06
0.006916666667,3.251146836e-06
0.0069375,3.386610842e-06
0.006958333333,3.533623612e-06
0.006979166667,3.681390353e-06
0.007,3.826738066e-06
0.007020833333,3.944795935e-06
0.007041666667,4.035334769e-06
0.0070625,4.093576536e-06
0.007083333333,4.137426458e-06
0.007104166667,4.183211786e-06
0.007125,4.232116225e-06
0.007145833333,4.282651389e-06
0.007166666667,4.308887128e-06
0.0071875,4.310155418e-06
0.007208333333,4.290090146e-06
0.007229166667,4.273617378e-06
0.00725,4.285159775e-06
0.007270833333,4.317303592e-06
0.007291666667,4.358028036e-06
0.0073125,4.364031156e-06
0.007333333333,4.329387139e-06
0.007354166667,4.255445674e-06
0.007375,4.173050002e-06
0.007395833333,4.10346729e-06
0.007416666667,4.037952749e-06
0.0074375,3.956537057e-06
0.007458333333,3.821478913e-06
0.007479166667,3.635273515e-06
0.0075,3.416508434e-06
0.007520833333,3.206233032e-06
0.007541666667,3.030588005e-06
0.0075625,2.877212637e-06
0.007583333333,2.725985496e-06
0.007604166667,2.537082764e-06
0.007625,2.319428177e-06
0.007645833333,2.085007054e-06
0.007666666667,1.870070264e-06
0.0076875,1.682279503e-06
0.007708333333,1.501110546e-06
0.007729166667,1.299948167e-06
0.00775,1.045081376e-06
0.007770833333,7.48956495e-07
0.007791666667,4.276336654e-07
0.0078125,1.138372028e-07
0.007833333333,-1.811767163e-07
0.007854166667,-4.720000106e-07
0.007875,-7.670695368e-07
0.007895833333,-1.088100134e-06
0.007916666667,-1.413115569e-06
0.0079375,-1.733925274e-06
0.007958333333,-2.023437219e-06
0.007979166667,-2.281935622e-06
0.008,-2.520193448e-06
0.008020833333,-2.74991703e-06
0.008041666667,-2.992877398e-06
0.0080625,-3.242477533e-06
0.008083333333,-3.50444202e-06
0.008104166667,-3.763222367e-06
0.008125,-4.015594186e-06
0.008145833333,-4.26188717e-06
0.008166666667,-4.497815553e-06
0.0081875,-4.742164037e-06
0.008208333333,-4.983806775e-06
0.008229166667,-5.233828233e-06
0.00825,-5.464310561e-06
0.008270833333,-5.663227512e-06
0.008291666667,-5.814200904e-06
0.0083125,-5.914687335e-06
0.008333333333,-5.99214809e-06
0.008354166667,-6.055619906e-06
0.008375,-6.127300821e-06
0.008395833333,-6.185859547e-06
0.008416666667,-6.214338555e-06
0.0084375,-6.200484677e-06
0.008458333333,-6.146954547e-06
0.008479166667,-6.096898687e-06
0.0085,-6.062358352e-06
0.008520833333,-6.062188277e-06
0.008541666667,-6.053519428e-06
0.0085625,-6.005191153e-06
0.008583333333,-5.889736713e-06
0.008604166667,-5.715663519e-06
0.008625,-5.524697826e-06
0.008645833333,-5.333396984e-06
0.008666666667,-5.15093825e-06
0.0086875,-4.931318927e-06
0.008708333333,-4.645273748e-06
0.008729166667,-4.281653219e-06
0.00875,-3.866928182e-06
0.008770833333,-3.46103252e-06
0.008791666667,-3.080577926e-06
0.0088125,-2.73706064e-06
0.008833333333,-2.375353688e-06
0.008854166667,-1.973640792e-06
0.008875,-1.518797262e-06
0.008895833333,-1.040027428e-06
0.008916666667,-5.811190249e-07
0.0089375,-1.439700981e-07
0.008958333333,2.78739833e-07
0.008979166667,7.440078775e-07
0.009,1.271861265e-06
0.009020833333,1.864805427e-06
0.009041666667,2.493641205e-06
0.0090625,3.112226977e-06
0.009083333333,3.720754648e-06
0.009104166667,4.31170929e-06
0.009125,4.92720028e-06
0.009145833333,5.563562354e-06
0.009166666667,6.220225714e-06
0.0091875,6.867476714e-06
0.009208333333,7.476861356e-06
0.009229166667,8.051853911e-06
0.00925,8.591799997e-06
0.009270833333,9.133238564e-06
0.009291666667,9.681774827e-06
0.0093125,1.024951416e-05
0.009333333333,1.082869494e-05
0.009354166667,1.140082986e-05
0.009375,1.196865469e-05
0.009395833333,1.251284993e-05
0.009416666667,1.305857677e-05
0.0094375,1.359738781e-05
0.009458333333,1.414880899e-05
0.009479166667,1.469731342e-05
0.0095,1.522131788e-05
0.009520833333,1.570021595e-05
0.009541666667,1.610327672e-05
0.0095625,1.645119482e-05
0.009583333333,1.675367457e-05
0.009604166667,1.705009345e-05
0.009625,1.734512443e-05
0.009645833333,1.761778367e-05
0.009666666667,1.784870437e-05
0.0096875,1.800425707e-05
0.009708333333,1.812086703e-05
0.009729166667,1.821935257e-05
0.00975,1.835276817e-05
0.009770833333,1.851015986e-05
0.009791666667,1.865509694e-05
0.0098125,1.873720794e-05
0.009833333333,1.871721179e-05
0.009854166667,1.862717363e-05
0.009875,1.849709588e-05
0.009895833333,1.837735726e-05
0.009916666667,1.825113395e-05
0.0099375,1.807262197e-05
0.009958333333,1.779937702e-05
0.009979166667,1.740615153e-05
0.01,2.529916674e-05
0.01002083333,2.266421143e-05
0.01004166667,2.087794019e-05
0.0100625,1.944820906e-05
0.01008333333,1.883047116e-05
0.01010416667,1.773846634e-05
0.010125,1.722240813e-05
0.01014583333,1.601956865e-05
0.01016666667,1.528517714e-05
0.0101875,1.39951735e-05
0.01020833333,1.306665035e-05
0.01022916667,1.161576074e-05
0.01025,1.06019852e-05
0.01027083333,9.064237929e-06
0.01029166667,7.899464435e-06
0.0103125,6.170179404e-06
0.01033333333,4.583803275e-06
0.01035416667,2.269543984e-06
0.010375,2.710703484e-07
0.01039583333,-2.691485861e-06
0.01041666667,-5.169196811e-06
0.0104375,-8.271640581e-06
0.01045833333,-1.072361465e-05
0.01047916667,-1.344396514e-05
0.0105,-1.517137571e-05
0.01052083333,-1.691783109e-05
0.01054166667,-1.750663978e-05
0.0105625,-1.841399717e-05
0.01058333333,-1.922377851e-05
0.01060416667,-2.101775681e-05
0.010625,-2.224712807e-05
0.01064583333,-2.438272168e-05
0.01066666667,-2.562330155e-05
0.0106875,-2.735810267e-05
0.01070833333,-2.800616858e-05
0.01072916667,-2.950290218e-05
0.01075,-3.035775262e-05
0.01077083333,-3.216166806e-05
0.01079166667,-3.294712224e-05
0.0108125,-3.425280738e-05
0.01083333333,-3.495436977e-05
0.01085416667,-3.648281927e-05
0.010875,-3.717339132e-05
0.01089583333,-3.882805322e-05
0.01091666667,-3.923866461e-05
0.0109375,-4.071250078e-05
0.01095833333,-4.081712905e-05
0.01097916667,-4.2072832e-05
0.011,-4.191665721e-05
0.01102083333,-4.282456939e-05
0.01104166667,-4.318095307e-05
0.0110625,-4.433074719e-05
0.01108333333,-4.501375224e-05
0.01110416667,-4.708466076e-05
0.011125,-4.784890916e-05
0.01114583333,-4.975561023e-05
0.01116666667,-4.994467236e-05
0.0111875,-5.11216931e-05
0.01120833333,-5.075799709e-05
0.01122916667,-5.179826985e-05
0.01125,-5.098707697e-05
0.01127083333,-5.081205381e-05
0.01129166667,-4.888176773e-05
0.0113125,-4.758024079e-05
0.01133333333,-4.519854701e-05
0.01135416667,-4.493443703e-05
0.011375,-4.356874706e-05
0.01139583333,-4.403248022e-05
0.01141666667,-4.319839718e-05
0.0114375,-4.338417057e-05
0.01145833333,-4.173479465e-05
0.01147916667,-4.200534386e-05
0.0115,-4.034299127e-05
0.01152083333,-4.029663978e-05
0.01154166667,-3.865015606e-05
0.0115625,-3.756598016e-05
0.01158333333,-3.51175986e-05
0.01160416667,-3.408631892e-05
0.011625,-3.14584031e-05
0.01164583333,-3.033836947e-05
0.01166666667,-2.800146649e-05
0.0116875,-2.707399835e-05
0.01170833333,-2.402824975e-05
0.01172916667,-2.300805681e-05
0.01175,-1.975972373e-05
0.01177083333,-1.76675494e-05
0.01179166667,-1.308856918e-05
0.0118125,-9.093909284e-06
0.01183333333,-2.870925528e-06
0.01185416667,2.028911013e-06
0.011875,9.20254206e-06
0.01189583333,1.520015394e-05
0.01191666667,2.282112473e-05
0.0119375,2.904457324e-05
0.01195833333,3.650343569e-05
0.01197916667,4.05151477e-05
0.012,4.699573401e-05
0.01202083333,5.061444244e-05
0.01204166667,5.757755207e-05
0.0120625,6.270690938e-05
0.01208333333,7.047482359e-05
0.01210416667,7.674681547e-05
0.012125,8.467141743e-05
0.01214583333,9.061505261e-05
0.01216666667,9.815481462e-05
0.0121875,0.0001026637037
0.01220833333,0.0001091233062
0.01222916667,0.0001129374505
0.01225,0.0001196808589
0.01227083333,0.0001255702809
0.01229166667,0.0001348343503
0.0123125,0.0001420944609
0.01233333333,0.0001514917967
0.01235416667,0.0001567943546
0.012375,0.0001640711998
0.01239583333,0.0001693608938
0.01241666667,0.0001780903694
0.0124375,0.0001854761067
0.01245833333,0.0001967829739
0.01247916667,0.0002061530831
0.0125,0.0002173949906
0.01252083333,0.0002257485903
0.01254166667,0.0002347425034
0.0125625,0.0002399679361
0.01258333333,0.000245776755
0.01260416667,0.0002474799112
0.012625,0.0002516170498
0.01264583333,0.000254647719
0.01266666667,0.0002621712047
0.0126875,0.0002678195888
0.01270833333,0.0002763998928
0.01272916667,0.0002814080799
0.01275,0.0002882567351
0.01277083333,0.0002914762881
0.01279166667,0.0002984795137
0.0128125,0.0003026034974
0.01283333333,0.0003097279696
0.01285416667,0.0003143927315
0.012875,0.0003207068949
0.01289583333,0.0003243294777
0.01291666667,0.0003318019735
0.0129375,0.0003362774733
0.01295833333,0.0003432810772
0.01297916667,0.0003473892284
0.013,0.0003548518289
0.01302083333,0.0003580359335
0.01304166667,0.0003646154946
0.0130625,0.0003677656641
0.01308333333,0.0003745686554
0.01310416667,0.0003769598843
0.013125,0.0003819781414
0.01314583333,0.0003843764134
0.01316666667,0.0003898739524
0.0131875,0.0003928824153
0.01320833333,0.0003990401747
0.01322916667,0.000401235593
0.01325,0.0004051992146
0.01327083333,0.0004068602284
0.01329166667,0.0004100818769
0.0133125,0.000409192493
0.01333333333,0.0004147371219
0.01335416667,0.0004152730689
0.013375,0.0004208051541
0.01339583333,0.0004230446066
0.01341666667,0.0004289967765
0.0134375,0.0004299942811
0.01345833333,0.0004328374634
0.01347916667,0.0004311785742
0.0135,0.0004332329845
0.01352083333,0.0004334418627
0.01354166667,0.0004399517784
0.0135625,0.0004447659303
0.01358333333,0.0004537700443
0.01360416667,0.0004563767579
0.013625,0.000460727606
0.01364583333,0.0004614762147
0.01366666667,0.000466380443
0.0136875,0.000468969607
0.01370833333,0.0004776490969
0.01372916667,0.0004813281703
0.01375,0.0004884110531
0.01377083333,0.0004911174183
0.01379166667,0.0004978262004
0.0138125,0.0004993799375
0.01383333333,0.000504651689
0.01385416667,0.0005058927345
0.013875,0.0005098233814
0.01389583333,0.0005086435121
0.01391666667,0.0005109999329
0.0139375,0.0005115193781
0.01395833333,0.0005145327887
0.01397916667,0.0005132051301
0.014,0.0005157302367
0.01402083333,0.0005114176311
0.01404166667,0.0005130567006
0.0140625,0.00050901738
0.01408333333,0.0005106755998
0.01410416667,0.0005061722477
0.014125,0.0005042583216
0.01414583333,0.0004951561568
0.01416666667,0.0004879092448
0.0141875,0.000478101545
0.01420833333,0.0004712261434
0.01422916667,0.0004628209863
0.01425,0.0004600346147
0.01427083333,0.0004531886079
0.01429166667,0.0004505601828
0.0143125,0.0004434724979
0.01433333333,0.0004396995646
0.01435416667,0.0004308188509
0.014375,0.0004294298415
0.01439583333,0.0004236043023
0.01441666667,0.0004235075321
0.0144375,0.0004169146123
0.01445833333,0.0004100787337
0.01447916667,0.0003967341036
0.0145,0.0003877973359
0.01452083333,0.000374006544
0.01454166667,0.0003681208182
0.0145625,0.0003568867105
0.01458333333,0.0003461547894
0.01460416667,0.0003287009313
0.014625,0.0003149792028
0.01464583333,0.0002964228042
0.01466666667,0.0002887754235
0.0146875,0.0002812797029
0.01470833333,0.0002813868923
0.01472916667,0.0002767812693
0.01475,0.0002772647713
0.01477083333,0.0002706656524
0.01479166667,0.0002692707931
0.0148125,0.0002663708583
0.01483333333,0.0002653520787
0.01485416667,0.0002534392988
0.014875,0.0002419758821
0.01489583333,0.0002244999196
0.01491666667,0.0002168428036
0.0149375,0.0002167135244
0.01495833333,0.0002367105044
0.01497916667,0.0002581280714
0.015,0.0002870733151
0.01502083333,0.0002974027011
0.01504166667,0.0002964720188
0.0150625,0.000273221347
0.01508333333,0.000246224954
0.01510416667,0.0002127493208
0.015125,0.0001919607312
0.01514583333,0.0001754548139
0.01516666667,0.0001704360766
0.0151875,0.0001646299061
0.01520833333,0.0001614982466
0.01522916667,0.0001502064115
0.01525,0.0001484823297
0.01527083333,0.0001410047698
0.01529166667,0.0001409528195
0.0153125,0.0001351806277
0.01533333333,0.0001324209006
0.01535416667,0.0001187958187
0.015375,0.0001114461047
0.01539583333,9.609296103e-05
0.01541666667,9.431334183e-05
0.0154375,8.787034312e-05
0.01545833333,8.678372251e-05
0.01547916667,7.916340837e-05
0.0155,7.246580935e-05
0.01552083333,6.322735862e-05
0.01554166667,5.475895887e-05
0.0155625,4.723098027e-05
0.01558333333,4.406357039e-05
0.01560416667,2.721219607e-05
0.015625,1.610247637e-05
0.01564583333,-5.257068551e-06
0.01566666667,-1.652885294e-05
0.0156875,-3.403718802e-05
0.01570833333,-4.57305141e-05
0.01572916667,-6.210744323e-05
0.01575,-7.748218923e-05
0.01577083333,-9.79455217e-05
0.01579166667,-0.000110497589
0.0158125,-0.0001312002132
0.01583333333,-0.0001468471019
0.01585416667,-0.000167951046
0.015875,-0.0001874026202
0.01589583333,-0.0002122466685
0.01591666667,-0.0002301684144
0.0159375,-0.0002508427133
0.01595833333,-0.0002608743962
0.01597916667,-0.0002809221915
0.016,-0.0002909563191
0.01602083333,-0.0003112640989
0.01604166667,-0.0003251509333
0.0160625,-0.0003462880559
0.01608333333,-0.0003572251881
0.01610416667,-0.0003762052511
0.016125,-0.0003889308427
0.01614583333,-0.00040768084
0.01616666667,-0.0004247743927
0.0161875,-0.0004452668072
0.01620833333,-0.0004557720677
0.01622916667,-0.0004712074588
0.01625,-0.0004756868002
0.01627083333,-0.0004875600571
0.01629166667,-0.0004917648039
0.0163125,-0.0005109634367
0.01633333333,-0.000523095543
0.01635416667,-0.0005472478806
0.016375,-0.000560983899
0.01639583333,-0.0005752241705
0.01641666667,-0.0005766976974
0.0164375,-0.0005820821971
0.01645833333,-0.0005825202097
0.01647916667,-0.0005916575901
0.0165,-0.0005993123632
0.01652083333,-0.0006125015789
0.01654166667,-0.0006138426834
0.0165625,-0.0006219444331
0.01658333333,-0.0006190612912
0.01660416667,-0.0006351597258
0.016625,-0.0006476893323
0.01664583333,-0.0006801681011
0.01666666667,-0.0007048309781
0.0166875,-0.0007336433628
0.01670833333,-0.000753465516
0.01672916667,-0.0007702323492
0.01675,-0.0007805354544
0.01677083333,-0.0007949693827
0.01679166667,-0.0007941820077
0.0168125,-0.0008020901587
0.01683333333,-0.0008002164541
0.01685416667,-0.0008038823144
0.016875,-0.0007995674387
0.01689583333,-0.000807099801
0.01691666667,-0.0008017363725
0.0169375,-0.0008105078596
0.01695833333,-0.0008103634464
0.01697916667,-0.0008185097831
0.017,-0.0008194742259
0.01702083333,-0.0008274823194
0.01704166667,-0.0008305098745
0.0170625,-0.0008406645502
0.01708333333,-0.0008487757295
0.01710416667,-0.0008661145112
0.017125,-0.0008758742479
0.01714583333,-0.0008939722902
0.01716666667,-0.000890517782
0.0171875,-0.0008929364267
0.01720833333,-0.0008849285077
0.01722916667,-0.0008915950893
0.01725,-0.0008916656952
0.01727083333,-0.0009041699232
0.01729166667,-0.0009069228545
0.0173125,-0.0009065137128
0.01733333333,-0.0008984128945
0.01735416667,-0.0009010845679
0.017375,-0.0009039641591
0.01739583333,-0.000916491088
0.01741666667,-0.0009220703505
0.0174375,-0.0009301832761
0.01745833333,-0.0009160941117
0.01747916667,-0.0009030875517
0.0175,-0.0008784341044
0.01752083333,-0.0008639502921
0.01754166667,-0.0008469001623
0.0175625,-0.0008539271657
0.01758333333,-0.0008577924455
0.01760416667,-0.000872955774
0.017625,-0.0008812072338
0.01764583333,-0.0008891396574
0.01766666667,-0.0008881587419
0.0176875,-0.0008926818846
0.01770833333,-0.0008886875585
0.01772916667,-0.0008972622454
0.01775,-0.0008976061363
0.01777083333,-0.0009033352253
0.01779166667,-0.0008871564642
0.0178125,-0.0008778756019
0.01783333333,-0.0008555327076
0.01785416667,-0.0008489461034
0.017875,-0.000827393902
0.01789583333,-0.0008223360637
0.01791666667,-0.0007966435514
0.0179375,-0.0007783405599
0.01795833333,-0.000743980112
0.01797916667,-0.000723918376
0.018,-0.0007038875483
0.01802083333,-0.0006913842517
0.01804166667,-0.0006697975332
0.0180625,-0.0006541974144
0.01808333333,-0.0006224048557
0.01810416667,-0.0006008019554
0.018125,-0.0005704540526
0.01814583333,-0.000561555149
0.01816666667,-0.0005380373914
0.0181875,-0.0005196129787
0.01820833333,-0.0004901677603
0.01822916667,-0.0004713772505
0.01825,-0.0004486048128
0.01827083333,-0.0004311291268
0.01829166667,-0.0004159073578
0.0183125,-0.0004042564251
0.01833333333,-0.0003765811562
0.01835416667,-0.0003525989305
0.018375,-0.0003184784728
0.01839583333,-0.0002957649995
0.01841666667,-0.0002554609091
0.0184375,-0.0002283346839
0.01845833333,-0.0001854613074
0.01847916667,-0.0001635314547
0.0185,-0.0001383218187
0.01852083333,-0.000119732882
0.01854166667,-9.018622222e-05
0.0185625,-6.846110045e-05
0.01858333333,-3.138067405e-05
0.01860416667,1.889198757e-06
0.018625,3.015719449e-05
0.01864583333,4.385999637e-05
0.01866666667,7.357204595e-05
0.0186875,8.935550431e-05
0.01870833333,0.0001333203545
0.01872916667,0.000153238565
0.01875,0.0001944957621
0.01877083333,0.0002237722947
0.01879166667,0.0002577539417
0.0188125,0.0002726740204
0.01883333333,0.0003016385599
0.01885416667,0.0003127209202
0.018875,0.0003334608045
0.01889583333,0.0003521296603
0.01891666667,0.0003861947625
0.0189375,0.000425823062
0.01895833333,0.0004868711694
0.01897916667,0.000526689284
0.019,0.0005799196661
0.01902083333,0.0006128259702
0.01904166667,0.0006612919387
0.0190625,0.0006941857864
0.01908333333,0.0007430342375
0.01910416667,0.000775639317
0.019125,0.0008018044755
0.01914583333,0.0008163364255
0.01916666667,0.0008420349332
0.0191875,0.0008692062693
0.01920833333,0.000917787198
0.01922916667,0.0009581395425
0.01925,0.0010196449
0.01927083333,0.001062617172
0.01929166667,0.001126418356
0.0193125,0.001168199931
0.01933333333,0.001222624676
0.01935416667,0.001264728722
0.019375,0.001320336945
0.01939583333,0.001369392732
0.01941666667,0.001438092906
0.0194375,0.001504924265
0.01945833333,0.001574436435
0.01947916667,0.001616021269
0.0195,0.00164961582
0.01952083333,0.001661291812
0.01954166667,0.001691645011
0.0195625,0.001713674748
0.01958333333,0.001752258511
0.01960416667,0.001770311501
0.019625,0.001798801124
0.01964583333,0.001819228521
0.01966666667,0.00187488622
0.0196875,0.001953045954
0.01970833333,0.002058813814
0.01972916667,0.00215199287
0.01975,0.002238797257
0.01977083333,0.002286113333
0.01979166667,0.002343770349
0.0198125,0.002387351124
0.01983333333,0.002454247093
0.01985416667,0.002492988016
0.019875,0.002504206728
0.01989583333,0.002490242012
0.01991666667,0.002482036129
0.0199375,0.00251305406
0.01995833333,0.002633415163
0.01997916667,0.002805373399
0.02,0.002984845545
0.02002083333,0.003123706207
0.02004166667,0.003205487039
0.0200625,0.003204214619
0.02008333333,0.003192635486
0.02010416667,0.003177090315
0.020125,0.003199484665
0.02014583333,0.003221977735
0.02016666667,0.003257397097
0.0201875,0.003263708204
0.02020833333,0.003273866372
0.02022916667,0.003272642381
0.02025,0.003303140169
0.02027083333,0.003342218697
0.02029166667,0.00341645116
0.0203125,0.003475415055
0.02033333333,0.003536878619
0.02035416667,0.003569750814
0.020375,0.003613609122
0.02039583333,0.003636484267
0.02041666667,0.00368085131
0.0204375,0.003703771392
0.02045833333,0.003735800972
0.02047916667,0.003752284218
0.0205,0.003781409236
0.02052083333,0.003817307297
0.02054166667,0.003882771358
0.0205625,0.003958125599
0.02058333333,0.004046472255
0.02060416667,0.004111314658
0.020625,0.004167841747
0.02064583333,0.004181464203
0.02066666667,0.004199147224
0.0206875,0.004195170011
0.02070833333,0.004216207657
0.02072916667,0.004224993289
0.02075,0.004252057057
0.02077083333,0.004256725311
0.02079166667,0.004270023201
0.0208125,0.00428454252
0.02083333333,0.004307531286
0.02085416667,0.004321429878
0.020875,0.004354494158
0.02089583333,0.004346363712
0.02091666667,0.004354873206
0.0209375,0.004338026978
0.02095833333,0.004330052529
0.02097916667,0.004315990955
0.021,0.004318236373
0.02102083333,0.00429348601
0.02104166667,0.004293918144
0.0210625,0.004274246749
0.02108333333,0.004261408001
0.02110416667,0.004247968551
0.021125,0.004266640171
0.02114583333,0.004271809477
0.02116666667,0.004297072999
0.0211875,0.004303838592
0.02120833333,0.004311479162
0.02122916667,0.004290642217
0.02125,0.004275384359
0.02127083333,0.004233005922
0.02129166667,0.004213928711
0.0213125,0.00417833589
0.02133333333,0.004148308188
0.02135416667,0.004109743517
0.021375,0.004100656137
0.02139583333,0.004066558089
0.02141666667,0.004051111173
0.0214375,0.004030354787
0.02145833333,0.004017461091
0.02147916667,0.00398837449
0.0215,0.003958950751
0.02152083333,0.003913537133
0.02154166667,0.003879738506
0.0215625,0.003827495035
0.02158333333,0.003789035138
0.02160416667,0.003723308444
0.021625,0.003676017746
0.02164583333,0.003596933559
0.02166666667,0.00355029339
0.0216875,0.0034817548
0.02170833333,0.003434679937
0.02172916667,0.003374733729
0.02175,0.003326243022
0.02177083333,0.003269883338
0.02179166667,0.003218204714
0.0218125,0.003151704092
0.02183333333,0.003110410646
0.02185416667,0.003051912878
0.021875,0.003018018557
0.02189583333,0.002961474471
0.02191666667,0.002929510549
0.0219375,0.002878659405
0.02195833333,0.002834476065
0.02197916667,0.002753097564
0.022,0.002678983845
0.02202083333,0.002558586886
0.02204166667,0.002458735136
0.0220625,0.002344996668
0.02208333333,0.002241943032
0.02210416667,0.002135640709
0.022125,0.002046115231
0.02214583333,0.001942745876
0.02216666667,0.001869034953
0.0221875,0.001769871335
0.02220833333,0.001691811951
0.02222916667,0.001585233258
0.02225,0.001506911474
0.02227083333,0.001406624098
0.02229166667,0.001334437751
0.0223125,0.001258466858
0.02233333333,0.001174105215
0.02235416667,0.001048870618
0.022375,0.0009069601656
0.02239583333,0.0007395560388
0.02241666667,0.0006303992122
0.0224375,0.0005539382109
0.02245833333,0.0005576869007
0.02247916667,0.0005887286388
0.0225,0.0006492683897
0.02252083333,0.0006502275355
0.02254166667,0.0006142320926
0.0225625,0.0004848368408
0.02258333333,0.0003369131591
0.02260416667,0.0001563194382
0.022625,-1.195003279e-06
0.02264583333,-0.0001581741381
0.02266666667,-0.0002703930659
0.0226875,-0.000398103788
0.02270833333,-0.0004839624744
0.02272916667,-0.0006052625831
0.02275,-0.0007065034588
0.02277083333,-0.0008169518551
0.02279166667,-0.0009023998864
0.0228125,-0.0009839151753
0.02283333333,-0.001035303576
0.02285416667,-0.001103993272
0.022875,-0.001153174439
0.02289583333,-0.001242151251
0.02291666667,-0.001320015755
0.0229375,-0.001433502883
0.02295833333,-0.001517101191
0.02297916667,-0.001639201771
0.023,-0.001737199957
0.02302083333,-0.00185682741
0.02304166667,-0.001956799533
0.0230625,-0.002058266895
0.02308333333,-0.002145982813
0.02310416667,-0.002255702391
0.023125,-0.002332703676
0.02314583333,-0.002469325205
0.02316666667,-0.002601113869
0.0231875,-0.002750140149
0.02320833333,-0.00289805443
0.02322916667,-0.003048628103
0.02325,-0.003161679953
0.02327083333,-0.003301344579
0.02329166667,-0.003415077925
0.0233125,-0.003559097182
0.02333333333,-0.003705696668
0.02335416667,-0.003868565429
0.023375,-0.00400422886
0.02339583333,-0.004161061719
0.02341666667,-0.004267304204
0.0234375,-0.004373322241
0.02345833333,-0.004495954607
0.02347916667,-0.004628809169
0.0235,-0.004732650705
0.02352083333,-0.004849269055
0.02354166667,-0.004901507404
0.0235625,-0.004968037363
0.02358333333,-0.005000716075
0.02360416667,-0.005069455132
0.023625,-0.005156835541
0.02364583333,-0.005284321494
0.02366666667,-0.005386984441
0.0236875,-0.005488350522
0.02370833333,-0.005543026607
0.02372916667,-0.005611306988
0.02375,-0.005639594514
0.02377083333,-0.005717040505
0.02379166667,-0.005761264358
0.0238125,-0.005849841982
0.02383333333,-0.005894207861
0.02385416667,-0.005962698255
0.023875,-0.006002175622
0.02389583333,-0.006074605975
0.02391666667,-0.006114499178
0.0239375,-0.006180729251
0.02395833333,-0.006252450868
0.02397916667,-0.006356733851
0.024,-0.006455608178
0.02402083333,-0.006581758615
0.02404166667,-0.006678368896
0.0240625,-0.006799346302
0.02408333333,-0.006889460143
0.02410416667,-0.007005451713
0.024125,-0.007120875642
0.02414583333,-0.007235826924
0.02416666667,-0.007325386163
0.0241875,-0.007450059522
0.02420833333,-0.007550079376
0.02422916667,-0.007680252194
0.02425,-0.007788631134
0.02427083333,-0.007911265828
0.02429166667,-0.007981520146
0.0243125,-0.008058508858
0.02433333333,-0.008085808717
0.02435416667,-0.008115520701
0.024375,-0.008141808212
0.02439583333,-0.008196615614
0.02441666667,-0.008218555711
0.0244375,-0.008279358968
0.02445833333,-0.008347557858
0.02447916667,-0.008453441784
0.0245,-0.008543665521
0.02452083333,-0.008643406443
0.02454166667,-0.008667555638
0.0245625,-0.008671105839
0.02458333333,-0.008616443723
0.02460416667,-0.008592674509
0.024625,-0.008574040607
0.02464583333,-0.008594237268
0.02466666667,-0.008589154109
0.0246875,-0.008574429899
0.02470833333,-0.008540893905
0.02472916667,-0.008516963571
0.02475,-0.008484300226
0.02477083333,-0.008502354845
0.02479166667,-0.008465139195
0.0248125,-0.008424459957
0.02483333333,-0.008339104243
0.02485416667,-0.008311137557
0.024875,-0.008308788761
0.02489583333,-0.00839054957
0.02491666667,-0.008431899361
0.0249375,-0.008440371603
0.02495833333,-0.008333109319
0.02497916667,-0.008180416189
0.025,-0.007988044061
0.02502083333,-0.007895950228
0.02504166667,-0.007864518091
0.0250625,-0.007915795781
0.02508333333,-0.00796766486
0.02510416667,-0.008036762476
0.025125,-0.008049388416
0.02514583333,-0.008079407737
0.02516666667,-0.008054948412
0.0251875,-0.008038897067
0.02520833333,-0.007975837216
0.02522916667,-0.007909935899
0.02525,-0.007801066153
0.02527083333,-0.007741454057
0.02529166667,-0.007701874711
0.0253125,-0.007683887146
0.02533333333,-0.007658859249
0.02535416667,-0.00764563214
0.025375,-0.00759778684
0.02539583333,-0.007583338302
0.02541666667,-0.007541203406
0.0254375,-0.007512084208
0.02545833333,-0.007444375195
0.02547916667,-0.007412505336
0.0255,-0.007350039203
0.02552083333,-0.007343527861
0.02554166667,-0.007328277919
0.0255625,-0.007320058532
0.02558333333,-0.007295845076
0.02560416667,-0.007235513534
0.025625,-0.007111088373
0.02564583333,-0.007023029029
0.02566666667,-0.006909279153
0.0256875,-0.006848012563
0.02570833333,-0.006769689731
0.02572916667,-0.006712500937
0.02575,-0.006599698216
0.02577083333,-0.00654983893
0.02579166667,-0.006475823
0.0258125,-0.006449125707
0.02583333333,-0.00643393863
0.02585416667,-0.006468796171
0.025875,-0.006452911999
0.02589583333,-0.006464764476
0.02591666667,-0.006433208473
0.0259375,-0.006426251028
0.02595833333,-0.006382275373
0.02597916667,-0.006359999068
0.026,-0.006272312719
0.02602083333,-0.006213228218
0.02604166667,-0.006113122217
0.0260625,-0.006031183526
0.02608333333,-0.005954124033
0.02610416667,-0.005909268279
0.026125,-0.005857255775
0.02614583333,-0.005821425468
0.02616666667,-0.005733614787
0.0261875,-0.00566000957
0.02620833333,-0.005546929315
0.02622916667,-0.005417694803
0.02625,-0.005255430005
0.02627083333,-0.005111337174
0.02629166667,-0.004952378571
0.0263125,-0.004839035682
0.02633333333,-0.004753584974
0.02635416667,-0.004743173718
0.026375,-0.004711436573
0.02639583333,-0.004705105908
0.02641666667,-0.004660951905
0.0264375,-0.004611151293
0.02645833333,-0.004536100663
0.02647916667,-0.004489785992
0.0265,-0.004465571605
0.02652083333,-0.004481786862
0.02654166667,-0.004463609308
0.0265625,-0.004438503645
0.02658333333,-0.00436540693
0.02660416667,-0.004332179204
0.026625,-0.004284890369
0.02664583333,-0.004294209182
0.02666666667,-0.004279520363
0.0266875,-0.004298698623
0.02670833333,-0.004262645729
0.02672916667,-0.004247272387
0.02675,-0.004201550968
0.02677083333,-0.004176951479
0.02679166667,-0.004091096111
0.0268125,-0.004001103342
0.02683333333,-0.00380418729
0.02685416667,-0.003595861141
0.026875,-0.003333074041
0.02689583333,-0.00312691927
0.02691666667,-0.002907605609
0.0269375,-0.002779913135
0.02695833333,-0.002671035938
0.02697916667,-0.002623521723
0.027,-0.002578166081
0.02702083333,-0.002607146744
0.02704166667,-0.00260742032
0.0270625,-0.002617533784
0.02708333333,-0.002613287186
0.02710416667,-0.002618405968
0.027125,-0.002582658082
0.02714583333,-0.002582794288
0.02716666667,-0.002518254332
0.0271875,-0.002496451605
0.02720833333,-0.002417435637
0.02722916667,-0.00236773747
0.02725,-0.002301675268
0.02727083333,-0.002238276647
0.02729166667,-0.002090503229
0.0273125,-0.001909260172
0.02733333333,-0.001676326618
0.02735416667,-0.001461973647
0.027375,-0.001304845675
0.02739583333,-0.001242956379
0.02741666667,-0.001194654847
0.0274375,-0.001153989695
0.02745833333,-0.0009873876115
0.02747916667,-0.000743487617
0.0275,-0.0004462279612
0.02752083333,-0.0002088160254
0.02754166667,-7.374305278e-05
0.0275625,-7.773051038e-05
0.02758333333,-0.0001507054549
0.02760416667,-0.0002944893204
0.027625,-0.0004036936443
0.02764583333,-0.0005164358299
0.02766666667,-0.0005766790127
0.0276875,-0.0006777741946
0.02770833333,-0.0007367030485
0.02772916667,-0.0007774962578
0.02775,-0.0007708779303
0.02777083333,-0.0007864068029
0.02779166667,-0.0007592930924
0.0278125,-0.000785697368
0.02783333333,-0.0008069302421
0.02785416667,-0.0008761241334
0.027875,-0.0008922980633
0.02789583333,-0.0009357256349
0.02791666667,-0.0008661199827
0.0279375,-0.0008151173824
0.02795833333,-0.0007777023129
0.02797916667,-0.00079755974
0.028,-0.000861174427
0.02802083333,-0.0009995427681
0.02804166667,-0.001047144062
0.0280625,-0.001060941257
0.02808333333,-0.0009879409336
0.02810416667,-0.0009247707203
0.028125,-0.0008883164264
0.02814583333,-0.0009655583417
0.02816666667,-0.001027121325
0.0281875,-0.001139119617
0.02820833333,-0.001162380679
0.02822916667,-0.00113628502
0.02825,-0.001065945951
0.02827083333,-0.001079621143
0.02829166667,-0.001106993295
0.0283125,-0.001246278756
0.02833333333,-0.00138484058
0.02835416667,-0.001492286799
0.028375,-0.001557757729
0.02839583333,-0.001585020567
0.02841666667,-0.001581367105
0.0284375,-0.001693137223
0.02845833333,-0.001837637858
0.02847916667,-0.002025856404
0.0285,-0.002140004188
0.02852083333,-0.00220319652
0.02854166667,-0.002137820702
0.0285625,-0.002057312522
0.02858333333,-0.001960004214
0.02860416667,-0.001995533472
0.028625,-0.002103421837
0.02864583333,-0.00235184026
0.02866666667,-0.002520431532
0.0286875,-0.002676432021
0.02870833333,-0.002692371141
0.02872916667,-0.002628866583
0.02875,-0.002566176699
0.02877083333,-0.002635252196
0.02879166667,-0.00268311752
0.0288125,-0.002784668002
0.02883333333,-0.00279494701
0.02885416667,-0.002738610841
0.028875,-0.002562110778
0.02889583333,-0.002541465685
0.02891666667,-0.002491800115
0.0289375,-0.002580639673
0.02895833333,-0.002770405496
0.02897916667,-0.002959880047
0.029,-0.003124569543
0.02902083333,-0.003336084774
0.02904166667,-0.003501007799
0.0290625,-0.003722735681
0.02908333333,-0.003947885707
0.02910416667,-0.004317111336
0.029125,-0.00466600433
0.02914583333,-0.005193840712
0.02916666667,-0.005599603988
0.0291875,-0.005999810994
0.02920833333,-0.006233479362
0.02922916667,-0.006339627318
0.02925,-0.006343431771
0.02927083333,-0.006306655705
0.02929166667,-0.006361768581
0.0293125,-0.006382068619
0.02933333333,-0.006406238303
0.02935416667,-0.006284944713
0.029375,-0.005969392136
0.02939583333,-0.005823829677
0.02941666667,-0.005619679112
0.0294375,-0.005699881352
0.02945833333,-0.005902381614
0.02947916667,-0.006257371511
0.0295,-0.006436433177
0.02952083333,-0.0064585004
0.02954166667,-0.0063332133
0.0295625,-0.006147615612
0.02958333333,-0.006336240564
0.02960416667,-0.006560184993
0.029625,-0.006995893084
0.02964583333,-0.00726010371
0.02966666667,-0.007366042584
0.0296875,-0.007349137217
0.02970833333,-0.007367121056
0.02972916667,-0.007834704593
0.02975,-0.008306018077
0.02977083333,-0.009107807651
0.02979166667,-0.009511646815
0.0298125,-0.009557279758
0.02983333333,-0.009664224461
0.02985416667,-0.009667566046
0.029875,-0.01053307112
0.02989583333,-0.01174452156
0.02991666667,-0.01283727773
0.0299375,-0.0125393942
0.02995833333,-0.01089784689
0.02997916667,-0.00907711871
0.03,-0.04638810083
0.03002083333,-0.04328767955
0.03004166667,-0.0404756777
0.0300625,-0.03917392716
0.03008333333,-0.03929012269
0.03010416667,-0.03943573311
0.030125,-0.03923391178
0.03014583333,-0.03815566376
0.03016666667,-0.03706852347
0.0301875,-0.03597989306
0.03020833333,-0.03536165133
0.03022916667,-0.03512090817
0.03025,-0.03459798545
0.03027083333,-0.03387087956
0.03029166667,-0.03280823678
0.0303125,-0.03181339055
0.03033333333,-0.03104929253
0.03035416667,-0.03056905977
0.030375,-0.03036369197
0.03039583333,-0.0301130265
0.03041666667,-0.02980275452
0.0304375,-0.02919811197
0.03045833333,-0.0288947951
0.03047916667,-0.02878780104
0.0305,-0.02889993601
0.03052083333,-0.02940467
0.03054166667,-0.02968674339
0.0305625,-0.02992805466
0.03058333333,-0.03005126864
0.03060416667,-0.03018621169
0.030625,-0.03001274727
0.03064583333,-0.03023708798
0.03066666667,-0.03072682768
0.0306875,-0.03119028546
0.03070833333,-0.03178836033
0.03072916667,-0.03227066621
0.03075,-0.03269033879
0.03077083333,-0.0333462581
0.03079166667,-0.03403799236
0.0308125,-0.03484007716
0.03083333333,-0.03560774028
0.03085416667,-0.03634947911
0.030875,-0.03686707467
0.03089583333,-0.03736432269
0.03091666667,-0.03764031082
0.0309375,-0.03778424114
0.03095833333,-0.03771822155
0.03097916667,-0.03768628091
0.031,-0.03741543368
0.03102083333,-0.03713769838
0.03104166667,-0.03669600934
0.0310625,-0.03613961861
0.03108333333,-0.03537135199
0.03110416667,-0.03465033323
0.031125,-0.0337869525
0.03114583333,-0.03308408335
0.03116666667,-0.0324356854
0.0311875,-0.03185917065
0.03120833333,-0.03126354143
0.03122916667,-0.03064894304
0.03125,-0.02999821864
0.03127083333,-0.02931540273
0.03129166667,-0.02875957824
0.0313125,-0.02847289108
0.03133333333,-0.02819570713
0.03135416667,-0.02804483473
0.031375,-0.02766293101
0.03139583333,-0.02728085779
0.03141666667,-0.02668891847
0.0314375,-0.02614852041
0.03145833333,-0.0256885346
0.03147916667,-0.02522485517
0.0315,-0.0247600656
0.03152083333,-0.02435823344
0.03154166667,-0.02387237363
0.0315625,-0.02331714891
0.03158333333,-0.0225213021
0.03160416667,-0.02162001841
0.031625,-0.02083371393
0.03164583333,-0.01996978
0.03166666667,-0.01903900504
0.0316875,-0.01793916523
0.03170833333,-0.0166117195
0.03172916667,-0.01515825
0.03175,-0.01339413412
0.03177083333,-0.01173380204
0.03179166667,-0.009950786829
0.0318125,-0.008129289374
0.03183333333,-0.006068945862
0.03185416667,-0.004029980861
0.031875,-0.001871543122
0.03189583333,0.0005529941409
0.03191666667,0.002961936174
0.0319375,0.005181649234
0.03195833333,0.007518645842
0.03197916667,0.009656349197
0.032,0.0120175574
0.03202083333,0.01443686802
0.03204166667,0.01682256721
0.0320625,0.01927845366
0.03208333333,0.02171705104
0.03210416667,0.02406112477
0.032125,0.02636902407
0.03214583333,0.02857355215
0.03216666667,0.03082036972
0.0321875,0.03302220255
0.03220833333,0.03521160781
0.03222916667,0.03739846125
0.03225,0.03964870051
0.03227083333,0.04183827713
0.03229166667,0.04388540238
0.0323125,0.04600862414
0.03233333333,0.04816414043
0.03235416667,0.05016722903
0.032375,0.05226547644
0.03239583333,0.05427422747
0.03241666667,0.05632834509
0.0324375,0.0585042648
0.03245833333,0.06073943898
0.03247916667,0.06298878044
0.0325,0.06533602625
0.03252083333,0.06753348559
0.03254166667,0.06964728981
0.0325625,0.07182061672
0.03258333333,0.0738401562
0.03260416667,0.075973548
0.032625,0.07817208767
0.03264583333,0.08035523444
0.03266666667,0.08250435442
0.0326875,0.08460208029
0.03270833333,0.08665826172
0.03272916667,0.08854918927
0.03275,0.09047958255
0.03277083333,0.09234019369
0.03279166667,0.09432883561
0.0328125,0.09597336501
0.03283333333,0.09776622802
0.03285416667,0.09944223613
0.032875,0.1010856107
0.03289583333,0.1028741598
0.03291666667,0.1045612618
0.0329375,0.1061193123
0.03295833333,0.1078227237
0.03297916667,0.1095865667
0.033,0.1112716794
0.03302083333,0.1129986197
0.03304166667,0.114623569
0.0330625,0.116297029
0.03308333333,0.1180367097
0.03310416667,0.1196790859
0.033125,0.1215212643
0.03314583333,0.1230918914
0.03316666667,0.1246910021
0.0331875,0.1260637343
0.03320833333,0.1272590309
0.03322916667,0.1281909794
0.03325,0.129118368
0.03327083333,0.1297433525
0.03329166667,0.1302157789
0.0333125,0.1305064112
0.03333333333,0.1305680573
0.03335416667,0.1305114925
0.033375,0.1304870695
0.03339583333,0.1303571761
0.03341666667,0.1301098913
0.0334375,0.1297951788
0.03345833333,0.1295069903
0.03347916667,0.1292275339
0.0335,0.1290632486
0.03352083333,0.1289004236
0.03354166667,0.1288662553
0.0335625,0.1287872493
0.03358333333,0.1288940758
0.03360416667,0.1289292574
0.033625,0.1289892793
0.03364583333,0.1290856004
0.03366666667,0.1294189095
0.0336875,0.1297895759
0.03370833333,0.1302088946
0.03372916667,0.1308162212
0.03375,0.1314913779
0.03377083333,0.1319690049
0.03379166667,0.1324668229
0.0338125,0.1331182569
0.03383333333,0.1337408721
0.03385416667,0.134401843
0.033875,0.1350702047
0.03389583333,0.1357706487
0.03391666667,0.1365130991
0.0339375,0.1373166293
0.03395833333,0.1380911618
0.03397916667,0.1387853622
0.034,0.139523834
0.03402083333,0.1402384192
0.03404166667,0.1409738213
0.0340625,0.1416751742
0.03408333333,0.1427695304
0.03410416667,0.1434408277
0.034125,0.1445709765
0.03414583333,0.1452790201
0.03416666667,0.1459359527
0.0341875,0.1470026076
0.03420833333,0.1478790045
0.03422916667,0.1487221867
0.03425,0.1495357007
0.03427083333,0.1502462626
0.03429166667,0.1511385143
0.0343125,0.1518137604
0.03433333333,0.1525723487
0.03435416667,0.1532935798
0.034375,0.1539413631
0.03439583333,0.1543256491
0.03441666667,0.1547772288
0.0344375,0.1551145166
0.03445833333,0.1554355621
0.03447916667,0.1556295007
0.0345,0.1557145119
0.03452083333,0.1556563973
0.03454166667,0.155629769
0.0345625,0.1554935426
0.03458333333,0.1553096622
0.03460416667,0.1550697982
0.034625,0.1547868997
0.03464583333,0.1545193344
0.03466666667,0.1542153656
0.0346875,0.1539742202
0.03470833333,0.1538090259
0.03472916667,0.153616935
0.03475,0.1535298526
0.03477083333,0.1534479856
0.03479166667,0.153287977
0.0348125,0.1531451046
0.03483333333,0.152903989
0.03485416667,0.1526026428
0.034875,0.1523718685
0.03489583333,0.1522001028
0.03491666667,0.1519765109
0.0349375,0.1517651677
0.03495833333,0.1517267972
0.03497916667,0.1516206414
0.035,0.1519180834
0.03502083333,0.1521465331
0.03504166667,0.1522325128
0.0350625,0.1522345096
0.03508333333,0.15211761
0.03510416667,0.152738899
0.035125,0.1540289819
0.03514583333,0.154626593
0.03516666667,0.1553634703
0.0351875,0.1563281715
0.03520833333,0.157198295
0.03522916667,0.1591120064
0.03525,0.1600962728
0.03527083333,0.1604293138
0.03529166667,0.160513714
0.0353125,0.1599071622
0.03533333333,0.1592259556
0.03535416667,0.1583309174
0.035375,0.1572642326
0.03539583333,0.1560199112
0.03541666667,0.1547466964
0.0354375,0.1534123272
0.03545833333,0.1518737525
0.03547916667,0.1500962079
0.0355,0.148369059
0.03552083333,0.1464455724
0.03554166667,0.1446854621
0.0355625,0.1429765224
0.03558333333,0.1413062364
0.03560416667,0.139631629
0.035625,0.1380052418
0.03564583333,0.1363747716
0.03566666667,0.1347318143
0.0356875,0.1330805868
0.03570833333,0.1314980835
0.03572916667,0.1297932863
0.03575,0.1282410324
0.03577083333,0.1266458631
0.03579166667,0.1251321286
0.0358125,0.1234744266
0.03583333333,0.1219463944
0.03585416667,0.1205375791
0.035875,0.1191214323
0.03589583333,0.1178520247
0.03591666667,0.1167116314
0.0359375,0.115702413
0.03595833333,0.1148502529
0.03597916667,0.1139996648
0.036,0.1132208556
0.03602083333,0.1124964133
0.03604166667,0.111989893
0.0360625,0.1114002764
0.03608333333,0.1108848006
0.03610416667,0.1104044914
0.036125,0.1099225134
0.03614583333,0.1094548702
0.03616666667,0.1089526936
0.0361875,0.1085449606
0.03620833333,0.1079736352
0.03622916667,0.1075289994
0.03625,0.1079463214
0.03627083333,0.1079637185
0.03629166667,0.1084669381
0.0363125,0.1086605638
0.03633333333,0.108824648
0.03635416667,0.1091594398
0.036375,0.1092621088
0.03639583333,0.1110218987
0.03641666667,0.1130577549
0.0364375,0.1148189679
0.03645833333,0.1163500771
0.03647916667,0.117557846
0.0365,0.1187999323
0.03652083333,0.1198819876
0.03654166667,0.1208502352
0.0365625,0.121623978
0.03658333333,0.1223252565
0.03660416667,0.1227179542
0.036625,0.1231759787
0.03664583333,0.1234932616
0.03666666667,0.123768203
0.0366875,0.1240834147
0.03670833333,0.1243393496
0.03672916667,0.1245738193
0.03675,0.1249622479
0.03677083333,0.1251775324
0.03679166667,0.1254148036
0.0368125,0.1255372912
0.03683333333,0.1257073283
0.03685416667,0.1259759516
0.036875,0.1262189597
0.03689583333,0.126474306
0.03691666667,0.1269011945
0.0369375,0.1272530407
0.03695833333,0.1276830584
0.03697916667,0.1281560808
0.037,0.1287812293
0.03702083333,0.1293726563
0.03704166667,0.1299270988
0.0370625,0.1305129379
0.03708333333,0.1311313212
0.03710416667,0.1316643059
0.037125,0.1322905272
0.03714583333,0.1325623095
0.03716666667,0.1328974813
0.0371875,0.1330716759
0.03720833333,0.1331372261
0.03722916667,0.1331650615
0.03725,0.1331167072
0.03727083333,0.133018136
0.03729166667,0.1327738166
0.0373125,0.1323356926
0.03733333333,0.1317776889
0.03735416667,0.1309925914
0.037375,0.1300392151
0.03739583333,0.1289599687
0.03741666667,0.1276907027
0.0374375,0.1263615638
0.03745833333,0.125066027
0.03747916667,0.1235483289
0.0375,0.1220495924
0.03752083333,0.1203179061
0.03754166667,0.1186572313
0.0375625,0.1167234108
0.03758333333,0.1147693545
0.03760416667,0.1126681268
0.037625,0.1104779169
0.03764583333,0.1084450036
0.03766666667,0.106379889
0.0376875,0.104193151
0.03770833333,0.102110602
0.03772916667,0.1001014784
0.03775,0.09819252789
0.03777083333,0.09623660147
0.03779166667,0.09430303425
0.0378125,0.09230551124
0.03783333333,0.09040989727
0.03785416667,0.08855827898
0.037875,0.08680225909
0.03789583333,0.0849872902
0.03791666667,0.08336319029
0.0379375,0.08177053183
0.03795833333,0.08028292656
0.03797916667,0.07888095081
0.038,0.07765267044
0.03802083333,0.07643838227
0.03804166667,0.07529302686
0.0380625,0.07428795844
0.03808333333,0.07338197529
0.03810416667,0.07251141965
0.038125,0.07165054977
0.03814583333,0.0708919242
0.03816666667,0.07018049806
0.0381875,0.06958061457
0.03820833333,0.06902921945
0.03822916667,0.06858337671
0.03825,0.06823251396
0.03827083333,0.06783601642
0.03829166667,0.06743001938
0.0383125,0.06695177406
0.03833333333,0.06660714
0.03835416667,0.06613880396
0.038375,0.06581690907
0.03839583333,0.06559283286
0.03841666667,0.06545582414
0.0384375,0.06532853842
0.03845833333,0.0652539283
0.03847916667,0.0652577877
0.0385,0.06522779167
0.03852083333,0.06530453265
0.03854166667,0.0655027926
0.0385625,0.06558705121
0.03858333333,0.06571023166
0.03860416667,0.06587505341
0.038625,0.06608998775
0.03864583333,0.0662310943
0.03866666667,0.0663548559
0.0386875,0.06661897898
0.03870833333,0.06678873301
0.03872916667,0.0670433864
0.03875,0.06720984727
0.03877083333,0.06733883917
0.03879166667,0.06737111509
0.0388125,0.06728126854
0.03883333333,0.06720713526
0.03885416667,0.06701043248
0.038875,0.06673178077
0.03889583333,0.0662239939
0.03891666667,0.06562843919
0.0389375,0.06494184583
0.03895833333,0.0642297864
0.03897916667,0.06349673122
0.039,0.06262268871
0.03902083333,0.06172095239
0.03904166667,0.06081485003
0.0390625,0.05996657535
0.03908333333,0.05913510919
0.03910416667,0.05827554688
0.039125,0.05774884671
0.03914583333,0.05729368329
0.03916666667,0.05689276755
0.0391875,0.05654487759
0.03920833333,0.05635812506
0.03922916667,0.05625442415
0.03925,0.05638442561
0.03927083333,0.05662299693
0.03929166667,0.05698339641
0.0393125,0.05751377344
0.03933333333,0.05819535255
0.03935416667,0.05896177888
0.039375,0.05972817168
0.03939583333,0.06062259153
0.03941666667,0.06166434661
0.0394375,0.06274653971
0.03945833333,0.06355954707
0.03947916667,0.06439264119
0.0395,0.06514871866
0.03952083333,0.06582474709
0.03954166667,0.06661523879
0.0395625,0.06699189544
0.03958333333,0.06739143282
0.03960416667,0.0675604865
0.039625,0.06751059741
0.03964583333,0.06737738848
0.03966666667,0.06706207991
0.0396875,0.06637281924
0.03970833333,0.06536304206
0.03972916667,0.06419701129
0.03975,0.06269457936
0.03977083333,0.06104325503
0.03979166667,0.05940742046
0.0398125,0.05756689608
0.03983333333,0.0556466952
0.03985416667,0.05351287127
0.039875,0.0514889732
0.03989583333,0.04936221987
0.03991666667,0.04733297229
0.0399375,0.04534786195
0.03995833333,0.04350132495
0.03997916667,0.04174217209
0.04,0.03998262808
0.04002083333,0.03830274567
0.04004166667,0.0367083773
0.0400625,0.03511959687
0.04008333333,0.0335473977
0.04010416667,0.03195229173
0.040125,0.03053862415
0.04014583333,0.02904023044
0.04016666667,0.02762082964
0.0401875,0.02610837482
0.04020833333,0.02471218258
0.04022916667,0.02334567718
0.04025,0.0219193045
0.04027083333,0.0206287168
0.04029166667,0.01924770325
0.0403125,0.01787278429
0.04033333333,0.01657317951
0.04035416667,0.01522213966
0.040375,0.01401966996
0.04039583333,0.01290905941
0.04041666667,0.0120112123
0.0404375,0.01110670064
0.04045833333,0.01050723437
0.04047916667,0.009997919202
0.0405,0.009682537988
0.04052083333,0.009553557262
0.04054166667,0.009589509107
0.0405625,0.009551296011
0.04058333333,0.009640576318
0.04060416667,0.009893313982
0.040625,0.01024269685
0.04064583333,0.01058870833
0.04066666667,0.0109033864
0.0406875,0.01117647905
0.04070833333,0.01153285895
0.04072916667,0.01182142366
0.04075,0.01212089323
0.04077083333,0.01234981511
0.04079166667,0.01261623856
0.0408125,0.01290150825
0.04083333333,0.01290927641
0.04085416667,0.01287021488
0.040875,0.01277286839
0.04089583333,0.01257908903
0.04091666667,0.0121776294
0.0409375,0.01167736109
0.04095833333,0.01109811291
0.04097916667,0.01034248713
0.041,0.009568320587
0.04102083333,0.008705515414
0.04104166667,0.00785704609
0.0410625,0.00690553477
0.04108333333,0.005816504825
0.04110416667,0.004707369022
0.041125,0.003688376863
0.04114583333,0.002670537913
0.04116666667,0.001664515235
0.0411875,0.0006498320727
0.04120833333,-0.0003162004868
0.04122916667,-0.001244765706
0.04125,-0.002222141484
0.04127083333,-0.003260352183
0.04129166667,-0.00427264953
0.0413125,-0.005244325381
0.04133333333,-0.006205295213
0.04135416667,-0.007222129963
0.041375,-0.008245952427
0.04139583333,-0.009193092585
0.04141666667,-0.01009048428
0.0414375,-0.01093034539
0.04145833333,-0.01187483687
0.04147916667,-0.01278380118
0.0415,-0.01368686184
0.04152083333,-0.01473181508
0.04154166667,-0.01566818543
0.0415625,-0.016796913
0.04158333333,-0.01795099303
0.04160416667,-0.01932965033
0.041625,-0.02070124261
0.04164583333,-0.02229449898
0.04166666667,-0.02379493043
0.0416875,-0.02554019541
0.04170833333,-0.02713429555
0.04172916667,-0.02908369526
0.04175,-0.03098842129
0.04177083333,-0.03287885711
0.04179166667,-0.03473982587
0.0418125,-0.03681494668
0.04183333333,-0.03912809864
0.04185416667,-0.04142199084
0.041875,-0.04384191334
0.04189583333,-0.04636219144
0.04191666667,-0.04889794439
0.0419375,-0.05160730332
0.04195833333,-0.0542406626
0.04197916667,-0.0568658486
0.042,-0.05940416083
0.04202083333,-0.0619321391
0.04204166667,-0.06445418298
0.0420625,-0.06717133522
0.04208333333,-0.0698639378
0.04210416667,-0.07251767814
0.042125,-0.07519501448
0.04214583333,-0.07793526351
0.04216666667,-0.08074223995
0.0421875,-0.08353799582
0.04220833333,-0.08622716367
0.04222916667,-0.08900307119
0.04225,-0.0918436721
0.04227083333,-0.09478838742
0.04229166667,-0.09783290327
0.0423125,-0.1009301171
0.04233333333,-0.1041268334
0.04235416667,-0.1075190827
0.042375,-0.1108926907
0.04239583333,-0.11442139
0.04241666667,-0.1178807244
0.0424375,-0.1213871688
0.04245833333,-0.1248014122
0.04247916667,-0.1282236129
0.0425,-0.1315915585
0.04252083333,-0.1348772645
0.04254166667,-0.1381272674
0.0425625,-0.1414325684
0.04258333333,-0.144738242
0.04260416667,-0.1480748951
0.042625,-0.1513935477
0.04264583333,-0.1545686275
0.04266666667,-0.1576723307
0.0426875,-0.1606730521
0.04270833333,-0.1638005823
0.04272916667,-0.1666194201
0.04275,-0.1695046574
0.04277083333,-0.1723879278
0.04279166667,-0.1749771833
0.0428125,-0.1775402874
0.04283333333,-0.1799173653
0.04285416667,-0.1824823618
0.042875,-0.1847467721
0.04289583333,-0.1869547516
0.04291666667,-0.1893448085
0.0429375,-0.1916525364
0.04295833333,-0.19406569
0.04297916667,-0.1965668052
0.043,-0.1989906579
0.04302083333,-0.2016611099
0.04304166667,-0.2043022364
0.0430625,-0.2069347948
0.04308333333,-0.2096718103
0.04310416667,-0.2124623209
0.043125,-0.2152029574
0.04314583333,-0.2179238498
0.04316666667,-0.2204049379
0.0431875,-0.22272183
0.04320833333,-0.2249104679
0.04322916667,-0.2269876152
0.04325,-0.2288527489
0.04327083333,-0.2304718494
0.04329166667,-0.2319888026
0.0433125,-0.2332707793
0.04333333333,-0.2342258245
0.04335416667,-0.2351831049
0.043375,-0.2357444167
0.04339583333,-0.2361606508
0.04341666667,-0.2363377213
0.0434375,-0.2362868339
0.04345833333,-0.2362873852
0.04347916667,-0.2362033874
0.0435,-0.2361553311
0.04352083333,-0.2361462414
0.04354166667,-0.2361209095
0.0435625,-0.2361766249
0.04358333333,-0.236361593
0.04360416667,-0.2364781797
0.043625,-0.2366599441
0.04364583333,-0.2369440198
0.04366666667,-0.2371047288
0.0436875,-0.2374441177
0.04370833333,-0.237811178
0.04372916667,-0.2383229733
0.04375,-0.2386485934
0.04377083333,-0.2392817289
0.04379166667,-0.2400195152
0.0438125,-0.2406927496
0.04383333333,-0.2415496111
0.04385416667,-0.2424483448
0.043875,-0.2433266491
0.04389583333,-0.2442724705
0.04391666667,-0.2452545911
0.0439375,-0.2461313009
0.04395833333,-0.2476913184
0.04397916667,-0.2490774691
0.044,-0.2500598431
0.04402083333,-0.2510432601
0.04404166667,-0.2517389357
0.0440625,-0.2523836493
0.04408333333,-0.2529419661
0.04410416667,-0.2534623146
0.044125,-0.2540724277
0.04414583333,-0.2547646165
0.04416666667,-0.2548942864
0.0441875,-0.2551099956
0.04420833333,-0.255477339
0.04422916667,-0.2559572756
0.04425,-0.2563883662
0.04427083333,-0.2568743825
0.04429166667,-0.2575443089
0.0443125,-0.258669734
0.04433333333,-0.2597040832
0.04435416667,-0.2609829605
0.044375,-0.2622881234
0.04439583333,-0.2637144327
0.04441666667,-0.2651075125
0.0444375,-0.2659960091
0.04445833333,-0.2667496502
0.04447916667,-0.26709041
0.0445,-0.2674157023
0.04452083333,-0.2675605714
0.04454166667,-0.267432183
0.0445625,-0.267603457
0.04458333333,-0.2672372162
0.04460416667,-0.2671747506
0.044625,-0.2668303549
0.04464583333,-0.2663195729
0.04466666667,-0.2663806975
0.0446875,-0.265986532
0.04470833333,-0.2655687332
0.04472916667,-0.264786005
0.04475,-0.2634767294
0.04477083333,-0.2624157965
0.04479166667,-0.2617333531
0.0448125,-0.2612057328
0.04483333333,-0.2609506845
0.04485416667,-0.2607684731
0.044875,-0.2606396973
0.04489583333,-0.2608338594
0.04491666667,-0.2605621815
0.0449375,-0.2606532872
0.04495833333,-0.2608159482
0.04497916667,-0.2610499263
0.045,-0.2616316676
0.04502083333,-0.2618097365
0.04504166667,-0.2621946037
0.0450625,-0.2625436485
0.04508333333,-0.2629541159
0.04510416667,-0.2633701861
0.045125,-0.2635563016
0.04514583333,-0.2640476227
0.04516666667,-0.2647116482
0.0451875,-0.264818579
0.04520833333,-0.2648493052
0.04522916667,-0.2652262151
0.04525,-0.2653509676
0.04527083333,-0.266138792
0.04529166667,-0.2669016421
0.0453125,-0.2677816153
0.04533333333,-0.2680982053
0.04535416667,-0.2681856155
0.045375,-0.2678782046
0.04539583333,-0.2673661411
0.04541666667,-0.2667213678
0.0454375,-0.2654471099
0.04545833333,-0.2645591497
0.04547916667,-0.263359189
0.0455,-0.2615092397
0.04552083333,-0.259978503
0.04554166667,-0.258376658
0.0455625,-0.2567346692
0.04558333333,-0.2551749349
0.04560416667,-0.2541958392
0.045625,-0.2533158064
0.04564583333,-0.2526709139
0.04566666667,-0.2519763708
0.0456875,-0.2516050339
0.04570833333,-0.250963062
0.04572916667,-0.2505098879
0.04575,-0.2499262094
0.04577083333,-0.2492612749
0.04579166667,-0.2489047498
0.0458125,-0.2484652847
0.04583333333,-0.2481733263
0.04585416667,-0.2479340732
0.045875,-0.247418493
0.04589583333,-0.2463856339
0.04591666667,-0.2447481155
0.0459375,-0.2434262931
0.04595833333,-0.2416422069
0.04597916667,-0.2398429513
0.046,-0.2379589975
0.04602083333,-0.2360411882
0.04604166667,-0.2339514643
0.0460625,-0.2315275818
0.04608333333,-0.2292191237
0.04610416667,-0.2264551073
0.046125,-0.2241885513
0.04614583333,-0.2220644504
0.04616666667,-0.2198768407
0.0461875,-0.2176646292
0.04620833333,-0.2152331322
0.04622916667,-0.21246849
0.04625,-0.2102538943
0.04627083333,-0.208220914
0.04629166667,-0.2063144296
0.0463125,-0.2047171295
0.04633333333,-0.2032758445
0.04635416667,-0.20212017
0.046375,-0.2010102868
0.04639583333,-0.2001702338
0.04641666667,-0.199729383
0.0464375,-0.1991329044
0.04645833333,-0.1988169104
0.04647916667,-0.1987136751
0.0465,-0.1987104267
0.04652083333,-0.1990015805
0.04654166667,-0.1993685663
0.0465625,-0.2000611126
0.04658333333,-0.2013762742
0.04660416667,-0.202589184
0.046625,-0.2038632929
0.04664583333,-0.2052741945
0.04666666667,-0.2065441757
0.0466875,-0.2077719867
0.04670833333,-0.2090355754
0.04672916667,-0.2101530433
0.04675,-0.2112466693
0.04677083333,-0.2122937739
0.04679166667,-0.2133214176
0.0468125,-0.2142305076
0.04683333333,-0.2151789069
0.04685416667,-0.2159899622
0.046875,-0.2167630345
0.04689583333,-0.2176205963
0.04691666667,-0.2184015214
0.0469375,-0.2193244845
0.04695833333,-0.2201633006
0.04697916667,-0.2210925817
0.047,-0.2219062448
0.04702083333,-0.2226455957
0.04704166667,-0.2233242244
0.0470625,-0.2237829268
0.04708333333,-0.2240967304
0.04710416667,-0.2243754864
0.047125,-0.2246231735
0.04714583333,-0.2248955518
0.04716666667,-0.2250029147
0.0471875,-0.2250109613
0.04720833333,-0.2249824107
0.04722916667,-0.224870488
0.04725,-0.2244430482
0.04727083333,-0.2238831818
0.04729166667,-0.2230458111
0.0473125,-0.2220417559
0.04733333333,-0.2208567858
0.04735416667,-0.2194607556
0.047375,-0.2179480493
0.04739583333,-0.2164011449
0.04741666667,-0.2146321833
0.0474375,-0.2127898037
0.04745833333,-0.2107885778
0.04747916667,-0.2085191309
0.0475,-0.2061688602
0.04752083333,-0.2036137134
0.04754166667,-0.2009821981
0.0475625,-0.1983059198
0.04758333333,-0.1954963505
0.04760416667,-0.1927033961
0.047625,-0.1898553967
0.04764583333,-0.1871750206
0.04766666667,-0.1844420731
0.0476875,-0.1817084849
0.04770833333,-0.1790091395
0.04772916667,-0.1762752533
0.04775,-0.1738055199
0.04777083333,-0.1712795496
0.04779166667,-0.1689053029
0.0478125,-0.1666305214
0.04783333333,-0.1644330919
0.04785416667,-0.1623062342
0.047875,-0.1603496522
0.04789583333,-0.1585771292
0.04791666667,-0.1569768637
0.0479375,-0.1554939151
0.04795833333,-0.1541496813
0.04797916667,-0.1528053135
0.048,-0.1513842493
0.04802083333,-0.1499944776
0.04804166667,-0.1486535072
0.0480625,-0.1473941058
0.04808333333,-0.1461500973
0.04810416667,-0.1449228823
0.048125,-0.1436173767
0.04814583333,-0.1423395425
0.04816666667,-0.1411456764
0.0481875,-0.1400817782
0.04820833333,-0.1390050799
0.04822916667,-0.137931481
0.04825,-0.1368960291
0.04827083333,-0.1359312236
0.04829166667,-0.135012418
0.0483125,-0.1340583414
0.04833333333,-0.1332464963
0.04835416667,-0.1325828135
0.048375,-0.1318802238
0.04839583333,-0.1311519295
0.04841666667,-0.1304064691
0.0484375,-0.1297260374
0.04845833333,-0.1290163547
0.04847916667,-0.1282543242
0.0485,-0.1274088621
0.04852083333,-0.1266177297
0.04854166667,-0.1259091944
0.0485625,-0.1253519803
0.04858333333,-0.1248468459
0.04860416667,-0.1243584305
0.048625,-0.1238907203
0.04864583333,-0.1234926432
0.04866666667,-0.1230698153
0.0486875,-0.1226546317
0.04870833333,-0.1222735867
0.04872916667,-0.1218567565
0.04875,-0.1212397292
0.04877083333,-0.1206191257
0.04879166667,-0.1199026331
0.0488125,-0.1192072183
0.04883333333,-0.1184813902
0.04885416667,-0.117567718
0.048875,-0.1164869741
0.04889583333,-0.115326874
0.04891666667,-0.114056088
0.0489375,-0.1126990542
0.04895833333,-0.1113338694
0.04897916667,-0.1098662466
0.049,-0.1084404737
0.04902083333,-0.1069451421
0.04904166667,-0.105472751
0.0490625,-0.1039838344
0.04908333333,-0.1024688259
0.04910416667,-0.1010013595
0.049125,-0.09957175702
0.04914583333,-0.09830582887
0.04916666667,-0.09713055938
0.0491875,-0.09605758637
0.04920833333,-0.09508536011
0.04922916667,-0.09423676878
0.04925,-0.09364137053
0.04927083333,-0.09311212599
0.04929166667,-0.09295472503
0.0493125,-0.09288497269
0.04933333333,-0.0928235203
0.04935416667,-0.092695117
0.049375,-0.09259234369
0.04939583333,-0.09252666682
0.04941666667,-0.09251654148
0.0494375,-0.09268400073
0.04945833333,-0.09277626872
0.04947916667,-0.09296581149
0.0495,-0.09313312918
0.04952083333,-0.09323661029
0.04954166667,-0.0934812203
0.0495625,-0.09357000887
0.04958333333,-0.09357283264
0.04960416667,-0.09343702346
0.049625,-0.09300001711
0.04964583333,-0.09250237793
0.04966666667,-0.09170906246
0.0496875,-0.0906554684
0.04970833333,-0.08935985714
0.04972916667,-0.0878405869
0.04975,-0.08609256148
0.04977083333,-0.08410324901
0.04979166667,-0.08189641684
0.0498125,-0.07947483659
0.04983333333,-0.07692448795
0.04985416667,-0.07423259318
0.049875,-0.07151035964
0.04989583333,-0.06874398887
0.04991666667,-0.06601815671
0.0499375,-0.06341371685
0.04995833333,-0.06098394841
0.04997916667,-0.05865560099
0.05,-0.05649539828
0.05002083333,-0.05440917239
0.05004166667,-0.0522412993
0.0500625,-0.05009570345
0.05008333333,-0.04800700024
0.05010416667,-0.04591700435
0.050125,-0.04399035126
0.05014583333,-0.04201608896
0.05016666667,-0.04000611603
0.0501875,-0.03798120096
0.05020833333,-0.03614506498
0.05022916667,-0.03433652967
0.05025,-0.03267418966
0.05027083333,-0.03101590648
0.05029166667,-0.02936158888
0.0503125,-0.02783121727
0.05033333333,-0.0263312161
0.05035416667,-0.02506111376
0.050375,-0.02388667129
0.05039583333,-0.0227957014
0.05041666667,-0.02181356959
0.0504375,-0.02088490315
0.05045833333,-0.02003825642
0.05047916667,-0.01932451874
0.0505,-0.0186623577
0.05052083333,-0.01810385473
0.05054166667,-0.01750989631
0.0505625,-0.01698785834
0.05058333333,-0.01642104797
0.05060416667,-0.01589864492
0.050625,-0.01546205673
0.05064583333,-0.01515914686
0.05066666667,-0.01482451893
0.0506875,-0.0144622596
0.05070833333,-0.01394697931
0.05072916667,-0.01340033766
0.05075,-0.01274480578
0.05077083333,-0.01200016495
0.05079166667,-0.01126934309
0.0508125,-0.01041341573
0.05083333333,-0.009381108917
0.05085416667,-0.008169916458
0.050875,-0.006934491452
0.05089583333,-0.005634179804
0.05091666667,-0.004200723954
0.0509375,-0.002691310132
0.05095833333,-0.001087220153
0.05097916667,0.0005883017438
0.051,0.002315402031
0.05102083333,0.003959416877
0.05104166667,0.005707330536
0.0510625,0.007315558381
0.05108333333,0.008961237036
0.05110416667,0.01074279472
0.051125,0.01256325468
0.05114583333,0.01430647075
0.05116666667,0.01620507054
0.0511875,0.01802763715
0.05120833333,0.01994490437
0.05122916667,0.02185531147
0.05125,0.0238164328
0.05127083333,0.02568256296
0.05129166667,0.02753346413
0.0513125,0.02940376848
0.05133333333,0.03121484257
0.05135416667,0.03296026587
0.051375,0.03464082628
0.05139583333,0.03632218391
0.05141666667,0.03783736005
0.0514375,0.03932575881
0.05145833333,0.04084067047
0.05147916667,0.04241611063
0.0515,0.04401026666
0.05152083333,0.04569023103
0.05154166667,0.04753109068
0.0515625,0.04940896854
0.05158333333,0.05147323385
0.05160416667,0.05357573181
0.051625,0.05592931435
0.05164583333,0.05834610015
0.05166666667,0.06082395092
0.0516875,0.06347225606
0.05170833333,0.06617714465
0.05172916667,0.06922113895
0.05175,0.07230681181
0.05177083333,0.07542531192
0.05179166667,0.07870902866
0.0518125,0.08189022541
0.05183333333,0.08515773714
0.05185416667,0.08832515776
0.051875,0.09154921025
0.05189583333,0.09477828443
0.05191666667,0.09805831313
0.0519375,0.1013756469
0.05195833333,0.1045978516
0.05197916667,0.1077819616
0.052,0.1109148189
0.05202083333,0.1140329689
0.05204166667,0.1169797555
0.0520625,0.1199193299
0.05208333333,0.1228407994
0.05210416667,0.1256702542
0.052125,0.1285238862
0.05214583333,0.1312870532
0.05216666667,0.1340164095
0.0521875,0.1367849112
0.05220833333,0.1395414174
0.05222916667,0.1423276514
0.05225,0.1450552344
0.05227083333,0.1478230208
0.05229166667,0.1506692916
0.0523125,0.1535532027
0.05233333333,0.1564463973
0.05235416667,0.1593498886
0.052375,0.1623197645
0.05239583333,0.1652880162
0.05241666667,0.1682701111
0.0524375,0.1711682677
0.05245833333,0.1742002815
0.05247916667,0.1771317273
0.0525,0.1799977571
0.05252083333,0.182952866
0.05254166667,0.185788691
0.0525625,0.1887420863
0.05258333333,0.191506654
0.05260416667,0.1942762285
0.052625,0.1969929785
0.05264583333,0.1995838434
0.05266666667,0.2022417337
0.0526875,0.2049718797
0.05270833333,0.207682237
0.05272916667,0.2103511542
0.05275,0.2128945142
0.05277083333,0.2153425366
0.05279166667,0.2178805321
0.0528125,0.2203917652
0.05283333333,0.222982496
0.05285416667,0.2254830301
0.052875,0.2281039357
0.05289583333,0.2306008786
0.05291666667,0.233239904
0.0529375,0.2359309942
0.05295833333,0.238531664
0.05297916667,0.2411814779
0.053,0.2437882721
0.05302083333,0.2463794947
0.05304166667,0.2489453554
0.0530625,0.2514351308
0.05308333333,0.2539004982
0.05310416667,0.2562266588
0.053125,0.2585421503
0.05314583333,0.2606143653
0.05316666667,0.2625412345
0.0531875,0.2644518912
0.05320833333,0.2660155296
0.05322916667,0.2673858106
0.05325,0.2684827447
0.05327083333,0.2693149149
0.05329166667,0.2699806392
0.0533125,0.2703825235
0.05333333333,0.2706761062
0.05335416667,0.2706032991
0.053375,0.2703979611
0.05339583333,0.2700422108
0.05341666667,0.2697641253
0.0534375,0.2694654465
0.05345833333,0.2691016495
0.05347916667,0.2688151896
0.0535,0.2684963048
0.05352083333,0.2683369517
0.05354166667,0.2681822777
0.0535625,0.2680999637
0.05358333333,0.2681646347
0.05360416667,0.2683849633
0.053625,0.2686806321
0.05364583333,0.2690587342
0.05366666667,0.269474417
0.0536875,0.269962132
0.05370833333,0.2706777751
0.05372916667,0.2713684142
0.05375,0.2720944583
0.05377083333,0.2728395164
0.05379166667,0.2735522687
0.0538125,0.2745129168
0.05383333333,0.275419414
0.05385416667,0.2764717042
0.053875,0.2773890793
0.05389583333,0.2785089016
0.05391666667,0.2795561552
0.0539375,0.2807663679
0.05395833333,0.281884104
0.05397916667,0.2826708257
0.054,0.2839005291
0.05402083333,0.2855046093
0.05404166667,0.2868006229
0.0540625,0.2881762981
0.05408333333,0.289624244
0.05410416667,0.2910526991
0.054125,0.2924830914
0.05414583333,0.2938868403
0.05416666667,0.2952490151
0.0541875,0.2966861427
0.05420833333,0.2979938686
0.05422916667,0.2991980016
0.05425,0.3003587127
0.05427083333,0.3013913333
0.05429166667,0.302362442
0.0543125,0.3032289147
0.05433333333,0.3040447533
0.05435416667,0.3048183918
0.054375,0.3054409027
0.05439583333,0.3060607016
0.05441666667,0.3065032959
0.0544375,0.3068752289
0.05445833333,0.3071272671
0.05447916667,0.3073176444
0.0545,0.3074962199
0.05452083333,0.3074614108
0.05454166667,0.3073676527
0.0545625,0.3072296381
0.05458333333,0.307061255
0.05460416667,0.3068691492
0.054625,0.3066814542
0.05464583333,0.3065059483
0.05466666667,0.3062466383
0.0546875,0.3060778677
0.05470833333,0.305868417
0.05472916667,0.3055888116
0.05475,0.3055015504
0.05477083333,0.305495888
0.05479166667,0.3054240346
0.0548125,0.3054324985
0.05483333333,0.3053262532
0.05485416667,0.305467695
0.054875,0.3062545657
0.05489583333,0.3076027632
0.05491666667,0.3095951378
0.0549375,0.3112511635
0.05495833333,0.3124452233
0.05497916667,0.3134494424
0.055,0.3140910566
0.05502083333,0.3151519001
0.05504166667,0.3163033128
0.0550625,0.3168528378
0.05508333333,0.3172763884
0.05510416667,0.3174128234
0.055125,0.3172753453
0.05514583333,0.3169345558
0.05516666667,0.3163728416
0.0551875,0.3156695068
0.05520833333,0.3146972954
0.05522916667,0.3136302829
0.05525,0.3123889863
0.05527083333,0.3111790717
0.05529166667,0.3098863959
0.0553125,0.308362782
0.05533333333,0.3068369925
0.05535416667,0.305174619
0.055375,0.3035068512
0.05539583333,0.3017318845
0.05541666667,0.2999592721
0.0554375,0.2982772291
0.05545833333,0.296492815
0.05547916667,0.2945917249
0.0555,0.2927170396
0.05552083333,0.29066962
0.05554166667,0.2886884511
0.0555625,0.286755085
0.05558333333,0.2846656442
0.05560416667,0.2825632989
0.055625,0.2804143131
0.05564583333,0.2784944773
0.05566666667,0.2765191197
0.0556875,0.2747349143
0.05570833333,0.2730034292
0.05572916667,0.2711234391
0.05575,0.2693154216
0.05577083333,0.2674634457
0.05579166667,0.2656623721
0.0558125,0.263892889
0.05583333333,0.2623445094
0.05585416667,0.2611698508
0.055875,0.2603841722
0.05589583333,0.2590355277
0.05591666667,0.2573578954
0.0559375,0.2556141615
0.05595833333,0.2538198233
0.05597916667,0.2525530756
0.056,0.2510069013
0.05602083333,0.2494027913
0.05604166667,0.2473462522
0.0560625,0.2452700436
0.05608333333,0.2430851907
0.05610416667,0.2406705916
0.056125,0.2384300828
0.05614583333,0.2360387594
0.05616666667,0.233750388
0.0561875,0.2313903719
0.05620833333,0.228882432
0.05622916667,0.226484552
0.05625,0.2241571844
0.05627083333,0.221746549
0.05629166667,0.2193261087
0.0563125,0.2169564664
0.05633333333,0.214804709
0.05635416667,0.2127956748
0.056375,0.2109206319
0.05639583333,0.2093606889
0.05641666667,0.2079484165
0.0564375,0.2067957222
0.05645833333,0.205742538
0.05647916667,0.2048060447
0.0565,0.2040585428
0.05652083333,0.2033828199
0.05654166667,0.2028020471
0.0565625,0.2022910267
0.05658333333,0.2017893493
0.05660416667,0.2013913542
0.056625,0.200986594
0.05664583333,0.200530231
0.05666666667,0.2001570612
0.0566875,0.1997836232
0.05670833333,0.1994542181
0.05672916667,0.1992212683
0.05675,0.1990500838
0.05677083333,0.199049592
0.05679166667,0.1989724487
0.0568125,0.1989830881
0.05683333333,0.1989766508
0.05685416667,0.1991562992
0.056875,0.1993950605
0.05689583333,0.199645102
0.05691666667,0.2000134438
0.0569375,0.2005045712
0.05695833333,0.2009236515
0.05697916667,0.2012483776
0.057,0.2016706169
0.05702083333,0.2019927055
0.05704166667,0.2023354173
0.0570625,0.2026331127
0.05708333333,0.2027922273
0.05710416667,0.2029327899
0.057125,0.2030404061
0.05714583333,0.2030699253
0.05716666667,0.2029907703
0.0571875,0.2028090209
0.05720833333,0.2025389969
0.05722916667,0.2020370662
0.05725,0.2014865577
0.05727083333,0.2008019388
0.05729166667,0.1998307854
0.0573125,0.1987456977
0.05733333333,0.1973653287
0.05735416667,0.1959643513
0.057375,0.194288224
0.05739583333,0.1924416423
0.05741666667,0.1904932261
0.0574375,0.1883558333
0.05745833333,0.1861423701
0.05747916667,0.1837510765
0.0575,0.1812642366
0.05752083333,0.1787168235
0.05754166667,0.1760531515
0.0575625,0.1733058691
0.05758333333,0.1706322432
0.05760416667,0.1678020656
0.057625,0.165100947
0.05764583333,0.1624308228
0.05766666667,0.1598758847
0.0576875,0.1574379206
0.05770833333,0.1550092548
0.05772916667,0.1526596993
0.05775,0.1503783464
0.05777083333,0.1481434703
0.05779166667,0.1458918899
0.0578125,0.1438261867
0.05783333333,0.1418763846
0.05785416667,0.1398702115
0.057875,0.1380230635
0.05789583333,0.1362193972
0.05791666667,0.1345755607
0.0579375,0.1329913437
0.05795833333,0.1315321773
0.05797916667,0.1300213635
0.058,0.1285962313
0.05802083333,0.1272550821
0.05804166667,0.1260396838
0.0580625,0.1248927116
0.05808333333,0.1237068325
0.05810416667,0.122701548
0.058125,0.1217117235
0.05814583333,0.1207925677
0.05816666667,0.1199910343
0.0581875,0.1192860901
0.05820833333,0.1186583936
0.05822916667,0.1181546375
0.05825,0.1178410798
0.05827083333,0.1174741387
0.05829166667,0.1171373874
0.0583125,0.1167182773
0.05833333333,0.116372332
0.05835416667,0.1160888448
0.058375,0.1158548072
0.05839583333,0.1156534255
0.05841666667,0.1155613512
0.0584375,0.1154361516
0.05845833333,0.1154152155
0.05847916667,0.115373522
0.0585,0.1152889878
0.05852083333,0.115273118
0.05854166667,0.1152310818
0.0585625,0.1150923222
0.05858333333,0.114875339
0.05860416667,0.1145520508
0.058625,0.1142870635
0.05864583333,0.1139737591
0.05866666667,0.1136611253
0.0586875,0.1132669151
0.05870833333,0.1127482876
0.05872916667,0.1122088209
0.05875,0.1116233245
0.05877083333,0.1107878685
0.05879166667,0.1099311858
0.0588125,0.1089696959
0.05883333333,0.1078929007
0.05885416667,0.1067265868
0.058875,0.1055048481
0.05889583333,0.104224056
0.05891666667,0.1030628979
0.0589375,0.1018584073
0.05895833333,0.1005497724
0.05897916667,0.09927029163
0.059,0.09799787402
0.05902083333,0.09676658362
0.05904166667,0.09563760459
0.0590625,0.09466148913
0.05908333333,0.09376552701
0.05910416667,0.09301653504
0.059125,0.09243232012
0.05914583333,0.09192423522
0.05916666667,0.09161140025
0.0591875,0.09135299921
0.05920833333,0.09120870382
0.05922916667,0.09125450999
0.05925,0.09137642384
0.05927083333,0.09159105271
0.05929166667,0.09197310358
0.0593125,0.09241177142
0.05933333333,0.09293513
0.05935416667,0.09354455024
0.059375,0.09405221045
0.05939583333,0.09445054829
0.05941666667,0.09488426149
0.0594375,0.09522628784
0.05945833333,0.09558579326
0.05947916667,0.09590297192
0.0595,0.09616708755
0.05952083333,0.09647471458
0.05954166667,0.09665306658
0.0595625,0.09678912908
0.05958333333,0.09682638198
0.05960416667,0.09675964713
0.059625,0.09649448097
0.05964583333,0.09609174728
0.05966666667,0.09549826384
0.0596875,0.09468152374
0.05970833333,0.09372065216
0.05972916667,0.09263137728
0.05975,0.09133160859
0.05977083333,0.0898405835
0.05979166667,0.08831861615
0.0598125,0.08662904799
0.05983333333,0.08482792228
0.05985416667,0.08301691711
0.059875,0.08105826378
0.05989583333,0.07908981293
0.05991666667,0.07714533061
0.0599375,0.0751349628
0.05995833333,0.0731426999
0.05997916667,0.07114637643
0.06,0.06928618997
0.06002083333,0.06732902676
0.06004166667,0.06535197794
0.0600625,0.06333614886
0.06008333333,0.06141131371
0.06010416667,0.05942258239
0.060125,0.05742152035
0.06014583333,0.05546467379
0.06016666667,0.05351901427
0.0601875,0.05171343684
0.06020833333,0.04987939447
0.06022916667,0.04816637933
0.06025,0.04653001204
0.06027083333,0.04496994987
0.06029166667,0.04338353127
0.0603125,0.04181202501
0.06033333333,0.04038796574
0.06035416667,0.03898720816
0.060375,0.03764114901
0.06039583333,0.03634688258
0.06041666667,0.03511305898
0.0604375,0.03388534859
0.06045833333,0.03276285529
0.06047916667,0.03182724863
0.0605,0.03099271283
0.06052083333,0.03025957197
0.06054166667,0.02969822474
0.0605625,0.02924051881
0.06058333333,0.02882608585
0.06060416667,0.02859480307
0.060625,0.02826443873
0.06064583333,0.02810727991
0.06066666667,0.0278359279
0.0606875,0.02767206542
0.06070833333,0.02761283517
0.06072916667,0.02736893855
0.06075,0.02714722604
0.06077083333,0.02689895034
0.06079166667,0.02649502829
0.0608125,0.02583440766
0.06083333333,0.0251241792
0.06085416667,0.02430878393
0.060875,0.02342562377
0.06089583333,0.02251807787
0.06091666667,0.02155268379
0.0609375,0.02055149898
0.06095833333,0.01944182999
0.06097916667,0.01842854731
0.061,0.01729475707
0.06102083333,0.01619690843
0.06104166667,0.01509546675
0.0610625,0.01390054077
0.06108333333,0.01270147972
0.06110416667,0.01144687459
0.061125,0.01017459016
0.06114583333,0.008852833882
0.06116666667,0.007556900382
0.0611875,0.006192379165
0.06120833333,0.004891667981
0.06122916667,0.003639361355
0.06125,0.002448873129
0.06127083333,0.001291525899
0.06129166667,5.515321391e-07
0.0613125,-0.0009445832693
0.06133333333,-0.002089708112
0.06135416667,-0.003180518514
0.061375,-0.004180458374
0.06139583333,-0.005134856328
0.06141666667,-0.006020069588
0.0614375,-0.007057459559
0.06145833333,-0.008014068939
0.06147916667,-0.00877388753
0.0615,-0.009222017601
0.06152083333,-0.009907687083
0.06154166667,-0.01085807197
0.0615625,-0.01183078624
0.06158333333,-0.0130555965
0.06160416667,-0.01444567647
0.061625,-0.01589393057
0.06164583333,-0.01743762568
0.06166666667,-0.01910343021
0.0616875,-0.02084927633
0.06170833333,-0.02273183875
0.06172916667,-0.02481440455
0.06175,-0.02689596638
0.06177083333,-0.02913361415
0.06179166667,-0.03149196506
0.0618125,-0.03398804739
0.06183333333,-0.0366146788
0.06185416667,-0.03924975917
0.061875,-0.04193717241
0.06189583333,-0.04456025362
0.06191666667,-0.04720560834
0.0619375,-0.04996239766
0.06195833333,-0.05262504518
0.06197916667,-0.05543399602
0.062,-0.05813392997
0.06202083333,-0.06069608778
0.06204166667,-0.06319192052
0.0620625,-0.065594621
0.06208333333,-0.06791470945
0.06210416667,-0.07033353299
0.062125,-0.07266959548
0.06214583333,-0.07501069456
0.06216666667,-0.077421166
0.0621875,-0.07976792753
0.06220833333,-0.08207090944
0.06222916667,-0.08437483013
0.06225,-0.08679386973
0.06227083333,-0.0892033428
0.06229166667,-0.09165086597
0.0623125,-0.09411083907
0.06233333333,-0.09670703858
0.06235416667,-0.09948355705
0.062375,-0.1022358462
0.06239583333,-0.105057247
0.06241666667,-0.1079202071
0.0624375,-0.1107916832
0.06245833333,-0.1136239842
0.06247916667,-0.1164297909
0.0625,-0.1191992089
0.06252083333,-0.1219184771
0.06254166667,-0.124633953
0.0625625,-0.1274570972
0.06258333333,-0.1301579773
0.06260416667,-0.1328571886
0.062625,-0.1356108189
0.06264583333,-0.1382631361
0.06266666667,-0.14105995
0.0626875,-0.1438390911
0.06270833333,-0.1466806978
0.06272916667,-0.1494990438
0.06275,-0.1522386372
0.06277083333,-0.1551309377
0.06279166667,-0.1579806954
0.0628125,-0.1608319581
0.06283333333,-0.1634694487
0.06285416667,-0.1660738587
0.062875,-0.1687028408
0.06289583333,-0.1712929159
0.06291666667,-0.1739195585
0.0629375,-0.1765022427
0.06295833333,-0.1790619642
0.06297916667,-0.1817729622
0.063,-0.1845445782
0.06302083333,-0.1874023229
0.06304166667,-0.1902645975
0.0630625,-0.1929956079
0.06308333333,-0.1958299577
0.06310416667,-0.1984591782
0.063125,-0.2011158615
0.06314583333,-0.20349738
0.06316666667,-0.2058362365
0.0631875,-0.2080340236
0.06320833333,-0.2099818289
0.06322916667,-0.2118354291
0.06325,-0.2134471834
0.06327083333,-0.2149061263
0.06329166667,-0.2160662264
0.0633125,-0.2170880437
0.06333333333,-0.2178208828
0.06335416667,-0.2182954848
0.063375,-0.2185388207
0.06339583333,-0.2186343819
0.06341666667,-0.2184839994
0.0634375,-0.2183433771
0.06345833333,-0.2180414647
0.06347916667,-0.2178754508
0.0635,-0.2177241743
0.06352083333,-0.2175301164
0.06354166667,-0.217410177
0.0635625,-0.2171851993
0.06358333333,-0.2170269638
0.06360416667,-0.2168450207
0.063625,-0.216798678
0.06364583333,-0.2169010937
0.06366666667,-0.2170821726
0.0636875,-0.2173155993
0.06370833333,-0.2175144255
0.06372916667,-0.2178119272
0.06375,-0.2180858552
0.06377083333,-0.2184996456
0.06379166667,-0.2188781798
0.0638125,-0.2192102671
0.06383333333,-0.2195907384
0.06385416667,-0.2200061381
0.063875,-0.2205219865
0.06389583333,-0.2210331112
0.06391666667,-0.2216149271
0.0639375,-0.2222091854
0.06395833333,-0.222745955
0.06397916667,-0.2233556509
0.064,-0.2240100801
0.06402083333,-0.2246361971
0.06404166667,-0.2253489047
0.0640625,-0.2260431349
0.06408333333,-0.2267466784
0.06410416667,-0.2275653481
0.064125,-0.2283591181
0.06414583333,-0.2292033881
0.06416666667,-0.2299296111
0.0641875,-0.2307493389
0.06420833333,-0.2315955162
0.06422916667,-0.2323218733
0.06425,-0.2332094908
0.06427083333,-0.2340969145
0.06429166667,-0.2348728925
0.0643125,-0.2357367873
0.06433333333,-0.2364401221
0.06435416667,-0.2371214777
0.064375,-0.2378450781
0.06439583333,-0.2382915616
0.06441666667,-0.238795802
0.0644375,-0.2392432839
0.06445833333,-0.2395057678
0.06447916667,-0.2397423238
0.0645,-0.2398158908
0.06452083333,-0.2399860919
0.06454166667,-0.2400806099
0.0645625,-0.240147531
0.06458333333,-0.2398167998
0.06460416667,-0.238726899
0.064625,-0.2376384586
0.06464583333,-0.2368068844
0.06466666667,-0.2357557714
0.0646875,-0.2347963601
0.06470833333,-0.2339104116
0.06472916667,-0.2332726866
0.06475,-0.2329237461
0.06477083333,-0.2324162126
0.06479166667,-0.2320013493
0.0648125,-0.2314079106
0.06483333333,-0.2309526205
0.06485416667,-0.230503425
0.064875,-0.2302225679
0.06489583333,-0.2299145609
0.06491666667,-0.2296702415
0.0649375,-0.229558304
0.06495833333,-0.2294261307
0.06497916667,-0.2293043137
0.065,-0.2292474061
0.06502083333,-0.229213208
0.06504166667,-0.2292371243
0.0650625,-0.2293643653
0.06508333333,-0.229408592
0.06510416667,-0.2294478714
0.065125,-0.2294819206
0.06514583333,-0.2295592129
0.06516666667,-0.2296120971
0.0651875,-0.2295743078
0.06520833333,-0.2295660228
0.06522916667,-0.2294680625
0.06525,-0.229387179
0.06527083333,-0.2291287631
0.06529166667,-0.2288042307
0.0653125,-0.2283728868
0.06533333333,-0.2278592587
0.06535416667,-0.2272920758
0.065375,-0.2266096473
0.06539583333,-0.2258720845
0.06541666667,-0.2250366062
0.0654375,-0.2243254632
0.06545833333,-0.2233810723
0.06547916667,-0.2224257588
0.0655,-0.2213349938
0.06552083333,-0.2200570554
0.06554166667,-0.2187682092
0.0655625,-0.2174979895
0.06558333333,-0.2161620706
0.06560416667,-0.2148071229
0.065625,-0.2135357857
0.06564583333,-0.212067917
0.06566666667,-0.2107250094
0.0656875,-0.2096534818
0.06570833333,-0.2088538557
0.06572916667,-0.2081979811
0.06575,-0.2074622661
0.06577083333,-0.2067394406
0.06579166667,-0.2058814168
0.0658125,-0.2049429119
0.06583333333,-0.203925401
0.06585416667,-0.2030196488
0.065875,-0.2021101117
0.06589583333,-0.2012652606
0.06591666667,-0.2004597336
0.0659375,-0.199672401
0.06595833333,-0.1989298761
0.06597916667,-0.1980379075
0.066,-0.1970634907
0.06602083333,-0.1960844994
0.06604166667,-0.1950717121
0.0660625,-0.1940327585
0.06608333333,-0.1929512471
0.06610416667,-0.1917019486
0.066125,-0.1905238926
0.06614583333,-0.1892622858
0.06616666667,-0.187990427
0.0661875,-0.1866855472
0.06620833333,-0.1853051782
0.06622916667,-0.1841286272
0.06625,-0.1826888621
0.06627083333,-0.1813942194
0.06629166667,-0.1801103801
0.0663125,-0.1789149493
0.06633333333,-0.1777603775
0.06635416667,-0.1767991036
0.066375,-0.1759223193
0.06639583333,-0.1752939224
0.06641666667,-0.1749088615
0.0664375,-0.174570933
0.06645833333,-0.1744478792
0.06647916667,-0.1743889153
0.0665,-0.1745716929
0.06652083333,-0.174973473
0.06654166667,-0.175517872
0.0665625,-0.1762516946
0.06658333333,-0.1769286394
0.06660416667,-0.1776458621
0.066625,-0.178636536
0.06664583333,-0.1797007173
0.06666666667,-0.1806186289
0.0666875,-0.1818735152
0.06670833333,-0.183191672
0.06672916667,-0.1845463365
0.06675,-0.185879752
0.06677083333,-0.1871359348
0.06679166667,-0.1885194182
0.0668125,-0.1898549944
0.06683333333,-0.1912171245
0.06685416667,-0.1926620901
0.066875,-0.1939996034
0.06689583333,-0.1953247637
0.06691666667,-0.1966187954
0.0669375,-0.1979558021
0.06695833333,-0.1992779225
0.06697916667,-0.2004663944
0.067,-0.2016361654
0.06702083333,-0.2028169185
0.06704166667,-0.2040041238
0.0670625,-0.2051194906
0.06708333333,-0.2061667591
0.06710416667,-0.2071488053
0.067125,-0.2079796046
0.06714583333,-0.2087166607
0.06716666667,-0.209331125
0.0671875,-0.2098184526
0.06720833333,-0.2101209313
0.06722916667,-0.2103300542
0.06725,-0.2102035433
0.06727083333,-0.2099222243
0.06729166667,-0.2094655782
0.0673125,-0.2088418156
0.06733333333,-0.2080496252
0.06735416667,-0.2070276737
0.067375,-0.205864653
0.06739583333,-0.2044682652
0.06741666667,-0.2028052211
0.0674375,-0.2011380941
0.06745833333,-0.199272424
0.06747916667,-0.1973401606
0.0675,-0.1952446103
0.06752083333,-0.1931106597
0.06754166667,-0.1907426417
0.0675625,-0.1882459819
0.06758333333,-0.1858335882
0.06760416667,-0.1833473295
0.067625,-0.1809954047
0.06764583333,-0.1786067784
0.06766666667,-0.1762199253
0.0676875,-0.1738722771
0.06770833333,-0.1714474261
0.06772916667,-0.1690583974
0.06775,-0.166759938
0.06777083333,-0.1645040214
0.06779166667,-0.1623007804
0.0678125,-0.1601228714
0.06783333333,-0.1580770165
0.06785416667,-0.1561360061
0.067875,-0.1541969776
0.06789583333,-0.1523883045
0.06791666667,-0.1506213248
0.0679375,-0.1487980187
0.06795833333,-0.1471436322
0.06797916667,-0.1454571933
0.068,-0.1437665224
0.06802083333,-0.142202884
0.06804166667,-0.1405154616
0.0680625,-0.1389243603
0.06808333333,-0.1374636292
0.06810416667,-0.1361079216
0.068125,-0.1348689198
0.06814583333,-0.1337055266
0.06816666667,-0.1325932741
0.0681875,-0.1314331591
0.06820833333,-0.130267188
0.06822916667,-0.1292202175
0.06825,-0.1282283813
0.06827083333,-0.1271961629
0.06829166667,-0.1262071431
0.0683125,-0.1252335757
0.06833333333,-0.124336578
0.06835416667,-0.1235519424
0.068375,-0.1227375865
0.06839583333,-0.1219411865
0.06841666667,-0.1212138012
0.0684375,-0.1205792874
0.06845833333,-0.1199603304
0.06847916667,-0.1193945855
0.0685,-0.1189514399
0.06852083333,-0.1184662133
0.06854166667,-0.117989026
0.0685625,-0.117612958
0.06858333333,-0.1172035486
0.06860416667,-0.1167764813
0.068625,-0.1163271889
0.06864583333,-0.1159212738
0.06866666667,-0.1155310124
0.0686875,-0.1150962412
0.06870833333,-0.1146147996
0.06872916667,-0.1141554192
0.06875,-0.1136377379
0.06877083333,-0.113011688
0.06879166667,-0.1124023125
0.0688125,-0.1118014753
0.06883333333,-0.1111144274
0.06885416667,-0.1104075611
0.068875,-0.1096144393
0.06889583333,-0.1086243689
0.06891666667,-0.1075653434
0.0689375,-0.1063509062
0.06895833333,-0.1051301435
0.06897916667,-0.1038731337
0.069,-0.1026775911
0.06902083333,-0.1014858782
0.06904166667,-0.1001957208
0.0690625,-0.09890918434
0.06908333333,-0.09767352045
0.06910416667,-0.09650180489
0.069125,-0.09548647702
0.06914583333,-0.09452608973
0.06916666667,-0.09369982034
0.0691875,-0.09306064248
0.06920833333,-0.09251692146
0.06922916667,-0.09200926125
0.06925,-0.09167870134
0.06927083333,-0.09148839116
0.06929166667,-0.09144757688
0.0693125,-0.09141016752
0.06933333333,-0.09157513827
0.06935416667,-0.09196564555
0.069375,-0.09236344695
0.06939583333,-0.09286960959
0.06941666667,-0.09338018298
0.0694375,-0.09389618784
0.06945833333,-0.09439247847
0.06947916667,-0.09488092363
0.0695,-0.09536170214
0.06952083333,-0.09576591104
0.06954166667,-0.09619727731
0.0695625,-0.09645459056
0.06958333333,-0.09656063467
0.06960416667,-0.09649971873
0.069625,-0.09622362256
0.06964583333,-0.0958378762
0.06966666667,-0.09518396854
0.0696875,-0.09432592988
0.06970833333,-0.09314654768
0.06972916667,-0.09161172807
0.06975,-0.08994281292
0.06977083333,-0.08793539554
0.06979166667,-0.08582523465
0.0698125,-0.08363417536
0.06983333333,-0.08129883558
0.06985416667,-0.07884322852
0.069875,-0.07635825872
0.06989583333,-0.07386121154
0.06991666667,-0.07128822058
0.0699375,-0.06885936111
0.06995833333,-0.06656593084
0.06997916667,-0.06439647824
0.07,-0.06232565269
0.07002083333,-0.06037796289
0.07004166667,-0.05860957131
0.0700625,-0.05692676827
0.07008333333,-0.05529280752
0.07010416667,-0.05372496322
0.070125,-0.05229121074
0.07014583333,-0.05083077401
0.07016666667,-0.04942985624
0.0701875,-0.0482195653
0.07020833333,-0.0469738543
0.07022916667,-0.04576649144
0.07025,-0.04460215569
0.07027083333,-0.04347232357
0.07029166667,-0.04231024161
0.0703125,-0.04116653278
0.07033333333,-0.04011608288
0.07035416667,-0.03908455744
0.070375,-0.03805362061
0.07039583333,-0.03713595495
0.07041666667,-0.03627181798
0.0704375,-0.03548727557
0.07045833333,-0.03474884108
0.07047916667,-0.0341488868
0.0705,-0.03364847228
0.07052083333,-0.03306088224
0.07054166667,-0.03262463585
0.0705625,-0.03212856874
0.07058333333,-0.03166057914
0.07060416667,-0.03132325411
0.070625,-0.03102652356
0.07064583333,-0.03093135357
0.07066666667,-0.03074511141
0.0706875,-0.03052245453
0.07070833333,-0.03037277237
0.07072916667,-0.03012748249
0.07075,-0.02984409593
0.07077083333,-0.02945729345
0.07079166667,-0.02909172699
0.0708125,-0.0286135003
0.07083333333,-0.02796340361
0.07085416667,-0.02739791945
0.070875,-0.0267569758
0.07089583333,-0.02618600987
0.07091666667,-0.02568750456
0.0709375,-0.02498324588
0.07095833333,-0.02425589412
0.07097916667,-0.02350930683
0.071,-0.02276312187
0.07102083333,-0.02179802209
0.07104166667,-0.02085410431
0.0710625,-0.01985881105
0.07108333333,-0.01880565658
0.07110416667,-0.01750843599
0.071125,-0.01625376381
0.07114583333,-0.01500726119
0.07116666667,-0.01380934101
0.0711875,-0.01269229408
0.07120833333,-0.01156327222
0.07122916667,-0.01049071923
0.07125,-0.009472490288
0.07127083333,-0.00846227631
0.07129166667,-0.007517822552
0.0713125,-0.006673941854
0.07133333333,-0.005797482096
0.07135416667,-0.004900462925
0.071375,-0.003942735959
0.07139583333,-0.002997005591
0.07141666667,-0.001946980716
0.0714375,-0.0008563885349
0.07145833333,0.0002731830755
0.07147916667,0.00144770008
0.0715,0.002722063335
0.07152083333,0.004014561418
0.07154166667,0.005292653106
0.0715625,0.00668553682
0.07158333333,0.008131844923
0.07160416667,0.009660602547
0.071625,0.01130627934
0.07164583333,0.01302928384
0.07166666667,0.01502502523
0.0716875,0.01692266576
0.07170833333,0.01892664284
0.07172916667,0.02115953714
0.07175,0.02347374707
0.07177083333,0.0258165393
0.07179166667,0.02834409475
0.0718125,0.0309170559
0.07183333333,0.03356437385
0.07185416667,0.03615362942
0.071875,0.03883723915
0.07189583333,0.04173520207
0.07191666667,0.04447195679
0.0719375,0.04737599939
0.07195833333,0.05026737601
0.07197916667,0.05309547111
0.072,0.0561006628
0.07202083333,0.05910861492
0.07204166667,0.06205185503
0.0720625,0.06495242566
0.07208333333,0.0678492561
0.07210416667,0.07070952654
0.072125,0.07360775024
0.07214583333,0.07651218027
0.07216666667,0.07954968512
0.0721875,0.08248638362
0.07220833333,0.0854973048
0.07222916667,0.08854787052
0.07225,0.09147977084
0.07227083333,0.09454442561
0.07229166667,0.09756388515
0.0723125,0.1005911306
0.07233333333,0.1036679819
0.07235416667,0.1068162322
0.072375,0.1100303456
0.07239583333,0.1132669002
0.07241666667,0.1164249703
0.0724375,0.1197878495
0.07245833333,0.1230473891
0.07247916667,0.1262561232
0.0725,0.1295013577
0.07252083333,0.1327500939
0.07254166667,0.1359829158
0.0725625,0.1391760856
0.07258333333,0.1424730718
0.07260416667,0.1457341015
0.072625,0.1489533484
0.07264583333,0.1522832215
0.07266666667,0.1555560231
0.0726875,0.1588369161
0.07270833333,0.1619857699
0.07272916667,0.1650794297
0.07275,0.1681072861
0.07277083333,0.1711458415
0.07279166667,0.1741480082
0.0728125,0.177142188
0.07283333333,0.1801137328
0.07285416667,0.1830283552
0.072875,0.185779646
0.07289583333,0.1884565502
0.07291666667,0.1911559701
0.0729375,0.1939330101
0.07295833333,0.1967371404
0.07297916667,0.1995272785
0.073,0.2022239566
0.07302083333,0.2050009817
0.07304166667,0.207655713
0.0730625,0.2101276815
0.07308333333,0.2125963122
0.07310416667,0.2148358822
0.073125,0.2169909775
0.07314583333,0.2188496739
0.07316666667,0.2206673771
0.0731875,0.2223091573
0.07320833333,0.223668173
0.07322916667,0.2248754203
0.07325,0.2257906497
0.07327083333,0.2264207006
0.07329166667,0.2268581986
0.0733125,0.2270621806
0.07333333333,0.2271693051
0.07335416667,0.2270877808
0.073375,0.2269884199
0.07339583333,0.2268406302
0.07341666667,0.2266358882
0.0734375,0.2264645249
0.07345833333,0.2262945622
0.07347916667,0.2262057215
0.0735,0.22621122
0.07352083333,0.2262970358
0.07354166667,0.2263822556
0.0735625,0.226581797
0.07358333333,0.226762712
0.07360416667,0.2270805985
0.073625,0.2273483574
0.07364583333,0.2277261168
0.07366666667,0.2281068265
0.0736875,0.2284890711
0.07370833333,0.2289972305
0.07372916667,0.2295669466
0.07375,0.2299853265
0.07377083333,0.2305157483
0.07379166667,0.2308511138
0.0738125,0.2311291546
0.07383333333,0.2314634174
0.07385416667,0.2317231297
0.073875,0.2319286168
0.07389583333,0.2321015745
0.07391666667,0.2322851121
0.0739375,0.232248351
0.07395833333,0.2323797047
0.07397916667,0.2324803323
0.074,0.2325948626
0.07402083333,0.2327587456
0.07404166667,0.2330105901
0.0740625,0.2331067622
0.07408333333,0.2332877219
0.07410416667,0.2336583287
0.074125,0.2340622842
0.07414583333,0.234685272
0.07416666667,0.2356929779
0.0741875,0.2367527932
0.07420833333,0.2375383675
0.07422916667,0.2383391559
0.07425,0.2390637696
0.07427083333,0.239610523
0.07429166667,0.2403098047
0.0743125,0.2410693616
0.07433333333,0.2419533879
0.07435416667,0.2426190972
0.074375,0.2428381741
0.07439583333,0.2430674881
0.07441666667,0.2432055026
0.0744375,0.2439242601
0.07445833333,0.2449168414
0.07447916667,0.2462476492
0.0745,0.2475999445
0.07452083333,0.2484315783
0.07454166667,0.2491039783
0.0745625,0.249439761
0.07458333333,0.2499551326
0.07460416667,0.2507909238
0.074625,0.2510992289
0.07464583333,0.2511833012
0.07466666667,0.2513391376
0.0746875,0.251635164
0.07470833333,0.2525987029
0.07472916667,0.2536244094
0.07475,0.2538701296
0.07477083333,0.2536797225
0.07479166667,0.2531093657
0.0748125,0.2523976862
0.07483333333,0.2513618171
0.07485416667,0.2501594126
0.074875,0.2488110662
0.07489583333,0.2479526401
0.07491666667,0.2471577674
0.0749375,0.2463455647
0.07495833333,0.2453157753
0.07497916667,0.2443954796
0.075,0.2435930073
0.07502083333,0.2425300628
0.07504166667,0.2413751334
0.0750625,0.2400620133
0.07508333333,0.2390734106
0.07510416667,0.2380988747
0.075125,0.2370427251
0.07514583333,0.2361651063
0.07516666667,0.2350872755
0.0751875,0.2345938832
0.07520833333,0.2343394458
0.07522916667,0.2339414656
0.07525,0.2336218357
0.07527083333,0.2329754233
0.07529166667,0.232391715
0.0753125,0.2310884893
0.07533333333,0.2296997309
0.07535416667,0.227967754
0.075375,0.2259369344
0.07539583333,0.2238530517
0.07541666667,0.2215500325
0.0754375,0.2193126827
0.07545833333,0.2167996466
0.07547916667,0.2142309248
0.0755,0.2115321606
0.07552083333,0.208748281
0.07554166667,0.2058864981
0.0755625,0.2030232549
0.07558333333,0.2002090514
0.07560416667,0.1972827911
0.075625,0.1946339756
0.07564583333,0.192334488
0.07566666667,0.1907987595
0.0756875,0.1894770712
0.07570833333,0.1883580685
0.07572916667,0.1874087751
0.07575,0.1860935688
0.07577083333,0.1851305515
0.07579166667,0.1836429387
0.0758125,0.1823476404
0.07583333333,0.1814544201
0.07585416667,0.1800775826
0.075875,0.1788364798
0.07589583333,0.177530095
0.07591666667,0.1760651171
0.0759375,0.1745990813
0.07595833333,0.1730380952
0.07597916667,0.1716375202
0.076,0.1699980348
0.07602083333,0.1684328765
0.07604166667,0.1667556614
0.0760625,0.164934665
0.07608333333,0.1631367058
0.07610416667,0.1612959057
0.076125,0.1596500725
0.07614583333,0.157853052
0.07616666667,0.1562893987
0.0761875,0.1547335535
0.07620833333,0.153252393
0.07622916667,0.1519187242
0.07625,0.1505843848
0.07627083333,0.1493642628
0.07629166667,0.1485145241
0.0763125,0.1483730525
0.07633333333,0.1483750194
0.07635416667,0.1483989358
0.076375,0.1486079246
0.07639583333,0.1489690542
0.07641666667,0.1496347338
0.0764375,0.1504539251
0.07645833333,0.1513109356
0.07647916667,0.1522482336
0.0765,0.1530096382
0.07652083333,0.153789416
0.07654166667,0.1545561254
0.0765625,0.1551658064
0.07658333333,0.1556445807
0.07660416667,0.1562815458
0.076625,0.1567796618
0.07664583333,0.1572990716
0.07666666667,0.1578496695
0.0766875,0.1582366526
0.07670833333,0.1586203277
0.07672916667,0.158947289
0.07675,0.1593158096
0.07677083333,0.159752816
0.07679166667,0.160182029
0.0768125,0.160610497
0.07683333333,0.1609135121
0.07685416667,0.1611018032
0.076875,0.1612861007
0.07689583333,0.1614823788
0.07691666667,0.1617026627
0.0769375,0.1618970931
0.07695833333,0.1620707512
0.07697916667,0.1622689813
0.077,0.162479341
0.07702083333,0.1626913249
0.07704166667,0.1628468782
0.0770625,0.1631036252
0.07708333333,0.1633732915
0.07710416667,0.1635604054
0.077125,0.1637114137
0.07714583333,0.1636053622
0.07716666667,0.163406834
0.0771875,0.163075164
0.07720833333,0.162703678
0.07722916667,0.1621362269
0.07725,0.1614680439
0.07727083333,0.1607275158
0.07729166667,0.1598547697
0.0773125,0.1588316113
0.07733333333,0.1577103436
0.07735416667,0.1562715024
0.077375,0.1546951085
0.07739583333,0.1529949605
0.07741666667,0.151094228
0.0774375,0.1491877437
0.07745833333,0.1470194757
0.07747916667,0.1445213556
0.0775,0.1420555562
0.07752083333,0.1394982338
0.07754166667,0.1369573772
0.0775625,0.1344653666
0.07758333333,0.131913662
0.07760416667,0.1293417662
0.077625,0.1268568635
0.07764583333,0.1244150549
0.07766666667,0.1219631433
0.0776875,0.1194983944
0.07770833333,0.117088154
0.07772916667,0.1147534996
0.07775,0.1124289408
0.07777083333,0.1102736443
0.07779166667,0.1081942916
0.0778125,0.1062478051
0.07783333333,0.1043828651
0.07785416667,0.1026052013
0.077875,0.1009884104
0.07789583333,0.09933126718
0.07791666667,0.0977095589
0.0779375,0.09625478834
0.07795833333,0.09476749599
0.07797916667,0.09339058399
0.078,0.09217309952
0.07802083333,0.09105819464
0.07804166667,0.09010765702
0.0780625,0.08924438059
0.07808333333,0.08852392435
0.07810416667,0.08785809577
0.078125,0.08734868467
0.07814583333,0.08693872392
0.07816666667,0.08658756316
0.0781875,0.0862672925
0.07820833333,0.08599922061
0.07822916667,0.08573909849
0.07825,0.08547250181
0.07827083333,0.08526671678
0.07829166667,0.08501669019
0.0783125,0.08478621393
0.07833333333,0.08447129279
0.07835416667,0.08419085294
0.078375,0.08389925212
0.07839583333,0.08364290744
0.07841666667,0.08337122202
0.0784375,0.08309038728
0.07845833333,0.08278790116
0.07847916667,0.08242547512
0.0785,0.08211219311
0.07852083333,0.0817772001
0.07854166667,0.08143862337
0.0785625,0.08110245317
0.07858333333,0.08080039918
0.07860416667,0.08055058867
0.078625,0.08022353053
0.07864583333,0.07990516722
0.07866666667,0.07959650457
0.0786875,0.07926472276
0.07870833333,0.07891193032
0.07872916667,0.07852232456
0.07875,0.0780255571
0.07877083333,0.07753060758
0.07879166667,0.07698457688
0.0788125,0.07649490237
0.07883333333,0.07587298751
0.07885416667,0.07525470853
0.078875,0.07463218272
0.07889583333,0.07404840738
0.07891666667,0.07338366657
0.0789375,0.07271093875
0.07895833333,0.07199788094
0.07897916667,0.0713596791
0.079,0.07063677907
0.07902083333,0.06989917904
0.07904166667,0.06921751797
0.0790625,0.06853367388
0.07908333333,0.06798331439
0.07910416667,0.06740434468
0.079125,0.06694717705
0.07914583333,0.06665612757
0.07916666667,0.06632936746
0.0791875,0.06617324054
0.07920833333,0.06612231582
0.07922916667,0.06613943726
0.07925,0.0662618801
0.07927083333,0.06648010015
0.07929166667,0.06679493189
0.0793125,0.06725393981
0.07933333333,0.06784225255
0.07935416667,0.06853464246
0.079375,0.06934527308
0.07939583333,0.07019813359
0.07941666667,0.07119591534
0.0794375,0.07216204703
0.07945833333,0.07311548293
0.07947916667,0.07401038706
0.0795,0.07494704425
0.07952083333,0.07584168762
0.07954166667,0.07670722157
0.0795625,0.07756915689
0.07958333333,0.07819408923
0.07960416667,0.07886597514
0.079625,0.07932072878
0.07964583333,0.07952027768
0.07966666667,0.07946233451
0.0796875,0.07908251137
0.07970833333,0.0784830153
0.07972916667,0.07757758349
0.07975,0.07643769681
0.07977083333,0.07504077256
0.07979166667,0.07343508303
0.0798125,0.07167722285
0.07983333333,0.0697145164
0.07985416667,0.06767387688
0.079875,0.06550054252
0.07989583333,0.06324276328
0.07991666667,0.06093281507
0.0799375,0.05855479464
0.07995833333,0.05631607771
0.07997916667,0.0539942421
0.08,0.05187027156
0.08002083333,0.04975734651
0.08004166667,0.04760364816
0.0800625,0.04567398503
0.08008333333,0.04370233417
0.08010416667,0.04174507409
0.080125,0.04000776261
0.08014583333,0.03825075924
0.08016666667,0.03654778376
0.0801875,0.03497318178
0.08020833333,0.03343524411
0.08022916667,0.03204070404
0.08025,0.03075069375
0.08027083333,0.0296268072
0.08029166667,0.02856698632
0.0803125,0.02764354087
0.08033333333,0.02676571347
0.08035416667,0.02593713067
0.080375,0.02526905574
0.08039583333,0.02468561195
0.08041666667,0.02411801182
0.0804375,0.02373166382
0.08045833333,0.02338423021
0.08047916667,0.02313276194
0.0805,0.02296434902
0.08052083333,0.02285396867
0.08054166667,0.02274782211
0.0805625,0.02265420742
0.08058333333,0.02257340774
0.08060416667,0.0225407742
0.080625,0.02254882641
0.08064583333,0.02260168083
0.08066666667,0.02270365134
0.0806875,0.02274986729
0.08070833333,0.02280385233
0.08072916667,0.02280740812
0.08075,0.02274454758
0.08077083333,0.02260479517
0.08079166667,0.02239527926
0.0808125,0.0220820196
0.08083333333,0.02167531103
0.08085416667,0.02115510032
0.080875,0.0204885006
0.08089583333,0.01985488087
0.08091666667,0.01913004927
0.0809375,0.01839180104
0.08095833333,0.01752094179
0.08097916667,0.01659297012
0.081,0.01563481614
0.08102083333,0.01464848313
0.08104166667,0.01363195013
0.0810625,0.012524358
0.08108333333,0.01145771239
0.08110416667,0.01032084599
0.081125,0.009253176861
0.08114583333,0.008217557333
0.08116666667,0.007460640278
0.0811875,0.006590398028
0.08120833333,0.005760162137
0.08122916667,0.004868072458
0.08125,0.004042693414
0.08127083333,0.003353817156
0.08129166667,0.002579615917
0.0813125,0.001821599435
0.08133333333,0.0009888508357
0.08135416667,0.0001667590404
0.081375,-0.0006611058488
0.08139583333,-0.001566284453
0.08141666667,-0.002408885863
0.0814375,-0.003264400642
0.08145833333,-0.004236326087
0.08147916667,-0.005215344485
0.0815,-0.00616365578
0.08152083333,-0.007248812821
0.08154166667,-0.008370735683
0.0815625,-0.009664884768
0.08158333333,-0.01109270193
0.08160416667,-0.01272079442
0.081625,-0.01448530331
0.08164583333,-0.01633894071
0.08166666667,-0.01837000623
0.0816875,-0.02046792582
0.08170833333,-0.0227716174
0.08172916667,-0.02505732886
0.08175,-0.02757414058
0.08177083333,-0.03015582822
0.08179166667,-0.03284054622
0.0818125,-0.03571834415
0.08183333333,-0.03861417249
0.08185416667,-0.0416688621
0.081875,-0.04470462352
0.08189583333,-0.04776101932
0.08191666667,-0.05080007017
0.0819375,-0.05387981981
0.08195833333,-0.05688193813
0.08197916667,-0.05969395116
0.082,-0.06233240291
0.08202083333,-0.06475617737
0.08204166667,-0.06704413146
0.0820625,-0.06927817315
0.08208333333,-0.07158217579
0.08210416667,-0.07392041385
0.082125,-0.07629717886
0.08214583333,-0.07861271501
0.08216666667,-0.08095975965
0.0821875,-0.08313604444
0.08220833333,-0.08542840183
0.08222916667,-0.08771798015
0.08225,-0.08996511996
0.08227083333,-0.09221216291
0.08229166667,-0.09453281015
0.0823125,-0.09696987271
0.08233333333,-0.09934283793
0.08235416667,-0.1016649455
0.082375,-0.1042361781
0.08239583333,-0.1067707166
0.08241666667,-0.1092534438
0.0824375,-0.1117431372
0.08245833333,-0.1143893301
0.08247916667,-0.1170697734
0.0825,-0.1197524369
0.08252083333,-0.1224202663
0.08254166667,-0.125172317
0.0825625,-0.1279523373
0.08258333333,-0.1306786388
0.08260416667,-0.1333362311
0.082625,-0.1359550506
0.08264583333,-0.1385831088
0.08266666667,-0.1412131488
0.0826875,-0.1437127143
0.08270833333,-0.1462007165
0.08272916667,-0.1485422999
0.08275,-0.1510099918
0.08277083333,-0.1534230858
0.08279166667,-0.1558423489
0.0828125,-0.1582590491
0.08283333333,-0.16065754
0.08285416667,-0.1630864888
0.082875,-0.1655151993
0.08289583333,-0.1680168062
0.08291666667,-0.1704669595
0.0829375,-0.1730745584
0.08295833333,-0.1757581383
0.08297916667,-0.1785267144
0.083,-0.1813924313
0.08302083333,-0.1841527522
0.08304166667,-0.1868193299
0.0830625,-0.18946895
0.08308333333,-0.1920489073
0.08310416667,-0.1944428831
0.083125,-0.1966585368
0.08314583333,-0.1987584382
0.08316666667,-0.2006157935
0.0831875,-0.2023105174
0.08320833333,-0.2038315237
0.08322916667,-0.2052363306
0.08325,-0.2063854486
0.08327083333,-0.2074915618
0.08329166667,-0.2082201242
0.0833125,-0.2088826746
0.08333333333,-0.2093803883
0.08335416667,-0.2095543593
0.083375,-0.2097144723
0.08339583333,-0.2095552236
0.08341666667,-0.2094650865
0.0834375,-0.209090963
0.08345833333,-0.208774507
0.08347916667,-0.2084296644
0.0835,-0.2079614848
0.08352083333,-0.2074828446
0.08354166667,-0.2069298923
0.0835625,-0.206513837
0.08358333333,-0.2060446143
0.08360416667,-0.2056651264
0.083625,-0.2054025829
0.08364583333,-0.2050462812
0.08366666667,-0.2048199475
0.0836875,-0.2047872245
0.08370833333,-0.204857856
0.08372916667,-0.2051273584
0.08375,-0.205502525
0.08377083333,-0.2059214711
0.08379166667,-0.206564486
0.0838125,-0.2071934044
0.08383333333,-0.2079449892
0.08385416667,-0.2086755633
0.083875,-0.209461242
0.08389583333,-0.2102371603
0.08391666667,-0.2109551579
0.0839375,-0.21170564
0.08395833333,-0.2125576884
0.08397916667,-0.2134156525
0.084,-0.2142972946
0.08402083333,-0.2151574492
0.08404166667,-0.2159936279
0.0840625,-0.216823265
0.08408333333,-0.2175691724
0.08410416667,-0.2183490098
0.084125,-0.2191489637
0.08414583333,-0.2199070007
0.08416666667,-0.2205895782
0.0841875,-0.2212177366
0.08420833333,-0.221829772
0.08422916667,-0.2223849893
0.08425,-0.2228966951
0.08427083333,-0.2233396471
0.08429166667,-0.2237692028
0.0843125,-0.2241183668
0.08433333333,-0.2243538946
0.08435416667,-0.2244864404
0.084375,-0.2246084511
0.08439583333,-0.2247491479
0.08441666667,-0.2246439159
0.0844375,-0.2247287333
0.08445833333,-0.22475788
0.08447916667,-0.2247925103
0.0845,-0.2247578949
0.08452083333,-0.2245557755
0.08454166667,-0.2244150937
0.0845625,-0.2242706865
0.08458333333,-0.22414729
0.08460416667,-0.2239276171
0.084625,-0.2237355411
0.08464583333,-0.2234567553
0.08466666667,-0.2232768387
0.0846875,-0.2228927612
0.08470833333,-0.2218587399
0.08472916667,-0.221125558
0.08475,-0.2200209796
0.08477083333,-0.2194179296
0.08479166667,-0.2189503908
0.0848125,-0.2183080018
0.08483333333,-0.2181988358
0.08485416667,-0.2183120251
0.084875,-0.2185747623
0.08489583333,-0.2190473825
0.08491666667,-0.2195222378
0.0849375,-0.2200047374
0.08495833333,-0.2204985172
0.08497916667,-0.220999375
0.085,-0.2214664668
0.08502083333,-0.2218869179
0.08504166667,-0.2222190499
0.0850625,-0.2225600183
0.08508333333,-0.2227870226
0.08510416667,-0.2229175568
0.085125,-0.222964108
0.08514583333,-0.2228618264
0.08516666667,-0.222720623
0.0851875,-0.2225918174
0.08520833333,-0.2221674323
0.08522916667,-0.2216530442
0.08525,-0.2211323529
0.08527083333,-0.2204758674
0.08529166667,-0.2197844386
0.0853125,-0.2189925909
0.08533333333,-0.2182357162
0.08535416667,-0.2173768431
0.085375,-0.2164697051
0.08539583333,-0.2154438645
0.08541666667,-0.2143950462
0.0854375,-0.2134287953
0.08545833333,-0.2123932987
0.08547916667,-0.2113887668
0.0855,-0.2103368044
0.08552083333,-0.2092822045
0.08554166667,-0.2081851959
0.0855625,-0.2069380581
0.08558333333,-0.2056166232
0.08560416667,-0.2041346431
0.085625,-0.2027641386
0.08564583333,-0.201322481
0.08566666667,-0.1998208463
0.0856875,-0.1983846277
0.08570833333,-0.196751371
0.08572916667,-0.1953027993
0.08575,-0.193776235
0.08577083333,-0.1919997185
0.08579166667,-0.1905547827
0.0858125,-0.1890179366
0.08583333333,-0.1873165071
0.08585416667,-0.185723424
0.085875,-0.1837003678
0.08589583333,-0.1816875339
0.08591666667,-0.179706201
0.0859375,-0.1775890142
0.08595833333,-0.1756859124
0.08597916667,-0.1738105863
0.086,-0.1720808446
0.08602083333,-0.1703116149
0.08604166667,-0.1685982794
0.0860625,-0.1669850498
0.08608333333,-0.1653176248
0.08610416667,-0.1637202799
0.086125,-0.1622057706
0.08614583333,-0.1606052667
0.08616666667,-0.1591785252
0.0861875,-0.1578148007
0.08620833333,-0.1563915908
0.08622916667,-0.155074656
0.08625,-0.1537806243
0.08627083333,-0.1525574923
0.08629166667,-0.1513539106
0.0863125,-0.1501550376
0.08633333333,-0.1491152793
0.08635416667,-0.1481397003
0.086375,-0.1473400891
0.08639583333,-0.1466948539
0.08641666667,-0.1460647583
0.0864375,-0.145706296
0.08645833333,-0.1455331147
0.08647916667,-0.1454206854
0.0865,-0.1454527676
0.08652083333,-0.1456835866
0.08654166667,-0.1458949745
0.0865625,-0.1462137848
0.08658333333,-0.1465803385
0.08660416667,-0.1469325721
0.086625,-0.1474285871
0.08664583333,-0.1479643434
0.08666666667,-0.1485684812
0.0866875,-0.1490514874
0.08670833333,-0.1497545838
0.08672916667,-0.1503878683
0.08675,-0.1509532928
0.08677083333,-0.1515286118
0.08679166667,-0.1521699876
0.0868125,-0.152870059
0.08683333333,-0.1535585821
0.08685416667,-0.1543599069
0.086875,-0.1551960558
0.08689583333,-0.1561108232
0.08691666667,-0.1572462618
0.0869375,-0.1584127992
0.08695833333,-0.1596954614
0.08697916667,-0.1609831601
0.087,-0.1622636467
0.08702083333,-0.1635810137
0.08704166667,-0.1648732871
0.0870625,-0.1661248058
0.08708333333,-0.1673292667
0.08710416667,-0.1685194522
0.087125,-0.1696183383
0.08714583333,-0.170563221
0.08716666667,-0.1714487821
0.0871875,-0.1721865684
0.08720833333,-0.1727515757
0.08722916667,-0.1732292026
0.08725,-0.1735903174
0.08727083333,-0.1737742722
0.08729166667,-0.1739017367
0.0873125,-0.1738020033
0.08733333333,-0.1734030098
0.08735416667,-0.1727270782
0.087375,-0.1718694568
0.08739583333,-0.1707549095
0.08741666667,-0.1694787145
0.0874375,-0.1680108905
0.08745833333,-0.166459769
0.08747916667,-0.1646796614
0.0875,-0.1627642959
0.08752083333,-0.1607829034
0.08754166667,-0.1586443633
0.0875625,-0.1564686745
0.08758333333,-0.1542408615
0.08760416667,-0.1520202011
0.087625,-0.1497468799
0.08764583333,-0.1474401057
0.08766666667,-0.1452486515
0.0876875,-0.1431572586
0.08770833333,-0.1410262883
0.08772916667,-0.1390097737
0.08775,-0.1371506751
0.08777083333,-0.1353746206
0.08779166667,-0.1336201876
0.0878125,-0.1318589449
0.08783333333,-0.1302097589
0.08785416667,-0.1285067499
0.087875,-0.1268949956
0.08789583333,-0.1252766401
0.08791666667,-0.1236543581
0.0879375,-0.1222342178
0.08795833333,-0.1207905263
0.08797916667,-0.1194744781
0.088,-0.1181773692
0.08802083333,-0.1168793738
0.08804166667,-0.1156762615
0.0880625,-0.11459025
0.08808333333,-0.1136776209
0.08810416667,-0.1127987057
0.088125,-0.1120647639
0.08814583333,-0.1114299893
0.08816666667,-0.1108500287
0.0881875,-0.1104383916
0.08820833333,-0.1101255193
0.08822916667,-0.1099309102
0.08825,-0.1097227633
0.08827083333,-0.1096437722
0.08829166667,-0.1094560921
0.0883125,-0.109330669
0.08833333333,-0.1091690361
0.08835416667,-0.1090076491
0.088375,-0.1089202315
0.08839583333,-0.1087538451
0.08841666667,-0.108624272
0.0884375,-0.1085428745
0.08845833333,-0.1084965691
0.08847916667,-0.1084777862
0.0885,-0.108444199
0.08852083333,-0.1085241884
0.08854166667,-0.1085005328
0.0885625,-0.1084535718
0.08858333333,-0.1084001288
0.08860416667,-0.108193621
0.088625,-0.1079060063
0.08864583333,-0.1075406969
0.08866666667,-0.1070811152
0.0886875,-0.1065568402
0.08870833333,-0.1060031503
0.08872916667,-0.1053311378
0.08875,-0.1045883
0.08877083333,-0.1038864702
0.08879166667,-0.1030471325
0.0888125,-0.1021563858
0.08883333333,-0.1011326909
0.08885416667,-0.09998831153
0.088875,-0.09882928431
0.08889583333,-0.09755377471
0.08891666667,-0.09617984295
0.0889375,-0.09476976097
0.08895833333,-0.09329789877
0.08897916667,-0.09186830372
0.089,-0.09041146189
0.08902083333,-0.08901140094
0.08904166667,-0.0876346156
0.0890625,-0.08631156385
0.08908333333,-0.08504124731
0.08910416667,-0.08372169733
0.089125,-0.08253658563
0.08914583333,-0.08139131963
0.08916666667,-0.08044993877
0.0891875,-0.07967850566
0.08920833333,-0.0790579319
0.08922916667,-0.07862704992
0.08925,-0.07826945186
0.08927083333,-0.07801122963
0.08929166667,-0.07784545422
0.0893125,-0.0777984038
0.08933333333,-0.07782075554
0.08935416667,-0.07795026898
0.089375,-0.07811826468
0.08939583333,-0.07827350497
0.08941666667,-0.07852093875
0.0894375,-0.07868212461
0.08945833333,-0.07887550443
0.08947916667,-0.07907200605
0.0895,-0.07924371213
0.08952083333,-0.07931964099
0.08954166667,-0.0792812705
0.0895625,-0.07920134068
0.08958333333,-0.07900086045
0.08960416667,-0.0786377117
0.089625,-0.07813389599
0.08964583333,-0.07744322717
0.08966666667,-0.07658751309
0.0896875,-0.07550204545
0.08970833333,-0.07422638685
0.08972916667,-0.0728314966
0.08975,-0.07119644433
0.08977083333,-0.06941013783
0.08979166667,-0.06756524742
0.0898125,-0.06559628993
0.08983333333,-0.06356558204
0.08985416667,-0.06142207235
0.089875,-0.05939526856
0.08989583333,-0.05727123469
0.08991666667,-0.05524714291
0.0899375,-0.05326897651
0.08995833333,-0.05132909119
0.08997916667,-0.04962165654
0.09,-0.04783019423
0.09002083333,-0.04615389183
0.09004166667,-0.0445186235
0.0900625,-0.04287695885
0.09008333333,-0.04124976322
0.09010416667,-0.03962544352
0.090125,-0.03807009384
0.09014583333,-0.03655721247
0.09016666667,-0.03506411985
0.0901875,-0.03346737474
0.09020833333,-0.03198157251
0.09022916667,-0.03056395985
0.09025,-0.02911768295
0.09027083333,-0.02784794942
0.09029166667,-0.02659484372
0.0903125,-0.02540688217
0.09033333333,-0.02437692322
0.09035416667,-0.02346557751
0.090375,-0.02265899442
0.09039583333,-0.02194159105
0.09041666667,-0.02144346014
0.0904375,-0.0209504012
0.09045833333,-0.02055878751
0.09047916667,-0.0202803947
0.0905,-0.01993027143
0.09052083333,-0.01979412511
0.09054166667,-0.01956837811
0.0905625,-0.01947976649
0.09058333333,-0.01940435916
0.09060416667,-0.01937994547
0.090625,-0.01948410831
0.09064583333,-0.01955093816
0.09066666667,-0.01969155297
0.0906875,-0.0197925549
0.09070833333,-0.02000353299
0.09072916667,-0.02017136104
0.09075,-0.02022748999
0.09077083333,-0.02022799291
0.09079166667,-0.02017334662
0.0908125,-0.02022741921
0.09083333333,-0.02020466328
0.09085416667,-0.02022223361
0.090875,-0.02013722807
0.09089583333,-0.0198536329
0.09091666667,-0.01953370124
0.0909375,-0.0191259291
0.09095833333,-0.0187131241
0.09097916667,-0.018113086
0.091,-0.01749807037
0.09102083333,-0.01672256179
0.09104166667,-0.01588025503
0.0910625,-0.01492180675
0.09108333333,-0.01384706236
0.09110416667,-0.01265773736
0.091125,-0.01139231864
0.09114583333,-0.0101522319
0.09116666667,-0.008884816431
0.0911875,-0.0076550995
0.09120833333,-0.006592021324
0.09122916667,-0.005565633532
0.09125,-0.004686942324
0.09127083333,-0.004011493176
0.09129166667,-0.003369603772
0.0913125,-0.002801492577
0.09133333333,-0.002204017481
0.09135416667,-0.001712351688
0.091375,-0.00119803194
0.09139583333,-0.0006674829638
0.09141666667,-0.0001011082786
0.0914375,0.0006434802199
0.09145833333,0.001368568046
0.09147916667,0.002262945753
0.0915,0.003333649132
0.09152083333,0.00463646045
0.09154166667,0.006151212845
0.0915625,0.007739706896
0.09158333333,0.009558049962
0.09160416667,0.01145051513
0.091625,0.01355926134
0.09164583333,0.01587289385
0.09166666667,0.01834397018
0.0916875,0.02100472525
0.09170833333,0.02387842536
0.09172916667,0.02683544345
0.09175,0.02997502685
0.09177083333,0.03321477026
0.09179166667,0.03660755605
0.0918125,0.04009900615
0.09183333333,0.04360963032
0.09185416667,0.04736737162
0.091875,0.0511601679
0.09189583333,0.05506597832
0.09191666667,0.05904860795
0.0919375,0.0629761219
0.09195833333,0.06692429632
0.09197916667,0.07080984116
0.092,0.07466325164
0.09202083333,0.07843059301
0.09204166667,0.08215922117
0.0920625,0.08583772182
0.09208333333,0.08933595568
0.09210416667,0.09272460639
0.092125,0.09599389881
0.09214583333,0.09920850396
0.09216666667,0.1023812294
0.0921875,0.1055526435
0.09220833333,0.108699277
0.09222916667,0.1117289066
0.09225,0.114782244
0.09227083333,0.1176766679
0.09229166667,0.1205399185
0.0923125,0.1233221143
0.09233333333,0.1259868592
0.09235416667,0.1286881417
0.092375,0.1312813163
0.09239583333,0.1338620037
0.09241666667,0.1363403052
0.0924375,0.1388475001
0.09245833333,0.1413167715
0.09247916667,0.1436040848
0.0925,0.1459147781
0.09252083333,0.1481464058
0.09254166667,0.1502984911
0.0925625,0.1524008512
0.09258333333,0.1545168161
