time,data
0,7.497798826e-09
2.083333333e-05,1.414310002e-08
4.166666667e-05,2.040897584e-08
6.25e-05,2.624225637e-08
8.333333333e-05,3.209147081e-08
0.0001041666667,3.824345285e-08
0.000125,4.479245419e-08
0.0001458333333,5.157582095e-08
0.0001666666667,5.816329463e-08
0.0001875,6.452867751e-08
0.0002083333333,7.069536423e-08
0.0002291666667,7.718517736e-08
0.00025,8.425699605e-08
0.0002708333333,9.199222717e-08
0.0002916666667,1.001635042e-07
0.0003125,1.082804886e-07
0.0003333333333,1.162582492e-07
0.0003541666667,1.239831846e-07
0.000375,1.318458231e-07
0.0003958333333,1.399324248e-07
0.0004166666667,1.482134593e-07
0.0004375,1.564213932e-07
0.0004583333333,1.640569849e-07
0.0004791666667,1.710655653e-07
0.0005,1.773211125e-07
0.0005208333333,1.832632677e-07
0.0005416666667,1.890543615e-07
0.0005625,1.948779982e-07
0.0005833333333,2.006435835e-07
0.0006041666667,2.060082807e-07
0.000625,2.108873787e-07
0.0006458333333,2.150338645e-07
0.0006666666667,2.187778421e-07
0.0006875,2.221992332e-07
0.0007083333333,2.255320481e-07
0.0007291666667,2.286192142e-07
0.00075,2.30947208e-07
0.0007708333333,2.321621366e-07
0.0007916666667,2.317060819e-07
0.0008125,2.299413353e-07
0.0008333333333,2.270828645e-07
0.0008541666667,2.237587751e-07
0.000875,2.200408744e-07
0.0008958333333,2.154798011e-07
0.0009166666667,2.097054619e-07
0.0009375,2.021777448e-07
0.0009583333333,1.935183462e-07
0.0009791666667,1.843261259e-07
0.001,1.754460754e-07
0.001020833333,1.669327219e-07
0.001041666667,1.579125524e-07
0.0010625,1.475831226e-07
0.001083333333,1.351147603e-07
0.001104166667,1.211225538e-07
0.001125,1.063395345e-07
0.001145833333,9.167127502e-08
0.001166666667,7.695631865e-08
0.0011875,6.118037987e-08
0.001208333333,4.33921592e-08
0.001229166667,2.315425185e-08
0.00125,1.574347541e-09
0.001270833333,-2.007319644e-08
0.001291666667,-4.056384029e-08
0.0013125,-6.011255493e-08
0.001333333333,-7.979606664e-08
0.001354166667,-1.005750931e-07
0.001375,-1.228636677e-07
0.001395833333,-1.45392562e-07
0.001416666667,-1.672049024e-07
0.0014375,-1.873839466e-07
0.001458333333,-2.067156117e-07
0.001479166667,-2.265682326e-07
0.0015,-2.479609407e-07
0.001520833333,-2.711834668e-07
0.001541666667,-2.948632414e-07
0.0015625,-3.179173689e-07
0.001583333333,-3.394191879e-07
0.001604166667,-3.597806142e-07
0.001625,-3.799566741e-07
0.001645833333,-4.003909453e-07
0.001666666667,-4.210527322e-07
0.0016875,-4.40546188e-07
0.001708333333,-4.580194286e-07
0.001729166667,-4.726803411e-07
0.00175,-4.851717108e-07
0.001770833333,-4.963773677e-07
0.001791666667,-5.071825058e-07
0.0018125,-5.179889513e-07
0.001833333333,-5.281274866e-07
0.001854166667,-5.371712746e-07
0.001875,-5.443141049e-07
0.001895833333,-5.49812853e-07
0.001916666667,-5.541838277e-07
0.0019375,-5.579659614e-07
0.001958333333,-5.617263241e-07
0.001979166667,-5.645192687e-07
0.002,-5.656668236e-07
0.002020833333,-5.635471894e-07
0.002041666667,-5.578544915e-07
0.0020625,-5.489916362e-07
0.002083333333,-5.380350672e-07
0.002104166667,-5.263489697e-07
0.002125,-5.137711128e-07
0.002145833333,-4.996736038e-07
0.002166666667,-4.826331406e-07
0.0021875,-4.622135066e-07
0.002208333333,-4.395586757e-07
0.002229166667,-4.163630365e-07
0.00225,-3.945367553e-07
0.002270833333,-3.737038412e-07
0.002291666667,-3.523701935e-07
0.0023125,-3.280528915e-07
0.002333333333,-2.997915374e-07
0.002354166667,-2.684464846e-07
0.002375,-2.361752962e-07
0.002395833333,-2.04642518e-07
0.002416666667,-1.733943265e-07
0.0024375,-1.403910233e-07
0.002458333333,-1.032636376e-07
0.002479166667,-6.166869326e-08
0.0025,-1.763537227e-08
0.002520833333,2.578019931e-08
0.002541666667,6.619725923e-08
0.0025625,1.042795859e-07
0.002583333333,1.419285525e-07
0.002604166667,1.817389119e-07
0.002625,2.237668468e-07
0.002645833333,2.66184685e-07
0.002666666667,3.064155862e-07
0.0026875,3.431173639e-07
0.002708333333,3.777414861e-07
0.002729166667,4.12926255e-07
0.00275,4.51002478e-07
0.002770833333,4.921332106e-07
0.002791666667,5.340443749e-07
0.0028125,5.744137184e-07
0.002833333333,6.114699431e-07
0.002854166667,6.461867201e-07
0.002875,6.79927382e-07
0.002895833333,7.141065339e-07
0.002916666667,7.481329476e-07
0.0029375,7.800757089e-07
0.002958333333,8.079173313e-07
0.002979166667,8.305648862e-07
0.003,8.488678418e-07
0.003020833333,8.645515663e-07
0.003041666667,8.792758308e-07
0.0030625,8.938604878e-07
0.003083333333,9.074659602e-07
0.003104166667,9.192359016e-07
0.003125,9.277634376e-07
0.003145833333,9.333841717e-07
0.003166666667,9.366002587e-07
0.0031875,9.389281104e-07
0.003208333333,9.408792607e-07
0.003229166667,9.417698834e-07
0.00325,9.398193015e-07
0.003270833333,9.325121937e-07
0.003291666667,9.188813124e-07
0.0033125,8.994444443e-07
0.003333333333,8.763662436e-07
0.003354166667,8.521236623e-07
0.003375,8.267736575e-07
0.003395833333,7.995262763e-07
0.003416666667,7.673313007e-07
0.0034375,7.298447144e-07
0.003458333333,6.882042385e-07
0.003479166667,6.460950317e-07
0.0035,6.065750995e-07
0.003520833333,5.695239906e-07
0.003541666667,5.322688139e-07
0.0035625,4.904107982e-07
0.003583333333,4.420175514e-07
0.003604166667,3.88574307e-07
0.003625,3.336386385e-07
0.003645833333,2.806013129e-07
0.003666666667,2.2846082e-07
0.0036875,1.742043167e-07
0.003708333333,1.131967906e-07
0.003729166667,4.521318431e-08
0.00375,-2.686359757e-08
0.003770833333,-9.721168936e-08
0.003791666667,-1.621820758e-07
0.0038125,-2.223685271e-07
0.003833333333,-2.813651179e-07
0.003854166667,-3.435038991e-07
0.003875,-4.089901893e-07
0.003895833333,-4.748167726e-07
0.003916666667,-5.365426432e-07
0.0039375,-5.917398767e-07
0.003958333333,-6.432530313e-07
0.003979166667,-6.949177873e-07
0.004,-7.516905498e-07
0.004020833333,-8.127371416e-07
0.004041666667,-8.75319472e-07
0.0040625,-9.344623209e-07
0.004083333333,-9.879478284e-07
0.004104166667,-1.037048264e-06
0.004125,-1.084331302e-06
0.004145833333,-1.132371267e-06
0.004166666667,-1.179901574e-06
0.0041875,-1.223914978e-06
0.004208333333,-1.260756903e-06
0.004229166667,-1.28861825e-06
0.00425,-1.309481036e-06
0.004270833333,-1.325620701e-06
0.004291666667,-1.341137363e-06
0.0043125,-1.355778181e-06
0.004333333333,-1.369607617e-06
0.004354166667,-1.379460855e-06
0.004375,-1.38428743e-06
0.004395833333,-1.384124857e-06
0.004416666667,-1.380291565e-06
0.0044375,-1.37581867e-06
0.004458333333,-1.370681957e-06
0.004479166667,-1.364399736e-06
0.0045,-1.353066295e-06
0.004520833333,-1.33294543e-06
0.004541666667,-1.303106274e-06
0.0045625,-1.26373186e-06
0.004583333333,-1.220314743e-06
0.004604166667,-1.174492581e-06
0.004625,-1.128464191e-06
0.004645833333,-1.078374794e-06
0.004666666667,-1.021094249e-06
0.0046875,-9.553535847e-07
0.004708333333,-8.835611993e-07
0.004729166667,-8.124235364e-07
0.00475,-7.455249715e-07
0.004770833333,-6.836480679e-07
0.004791666667,-6.210827337e-07
0.0048125,-5.514095278e-07
0.004833333333,-4.721540563e-07
0.004854166667,-3.848821848e-07
0.004875,-2.974896063e-07
0.004895833333,-2.125402148e-07
0.004916666667,-1.310502569e-07
0.0049375,-4.521992736e-08
0.004958333333,4.997204428e-08
0.004979166667,1.560660081e-07
0.005,2.677351176e-07
0.005020833333,3.752765281e-07
0.005041666667,4.743127704e-07
0.0050625,5.644608905e-07
0.005083333333,6.530932524e-07
0.005104166667,7.458884852e-07
0.005125,8.43235e-07
0.005145833333,9.411108408e-07
0.005166666667,1.030657927e-06
0.0051875,1.111059191e-06
0.005208333333,1.183444169e-06
0.005229166667,1.257347662e-06
0.00525,1.337207664e-06
0.005270833333,1.424003472e-06
0.005291666667,1.512207859e-06
0.0053125,1.594303171e-06
0.005333333333,1.667985657e-06
0.005354166667,1.733503723e-06
0.005375,1.796866854e-06
0.005395833333,1.860084012e-06
0.005416666667,1.92239736e-06
0.0054375,1.979309673e-06
0.005458333333,2.024061814e-06
0.005479166667,2.056773155e-06
0.0055,2.076520104e-06
0.005520833333,2.091202532e-06
0.005541666667,2.102323378e-06
0.0055625,2.113443543e-06
0.005583333333,2.12223631e-06
0.005604166667,2.125140327e-06
0.005625,2.121456419e-06
0.005645833333,2.1089661e-06
0.005666666667,2.092431259e-06
0.0056875,2.073104497e-06
0.005708333333,2.053339131e-06
0.005729166667,2.031798886e-06
0.00575,2.002095243e-06
0.005770833333,1.961792123e-06
0.005791666667,1.904886176e-06
0.0058125,1.836892238e-06
0.005833333333,1.759944666e-06
0.005854166667,1.681474942e-06
0.005875,1.601501481e-06
0.005895833333,1.516401312e-06
0.005916666667,1.422275659e-06
0.0059375,1.314942779e-06
0.005958333333,1.200946144e-06
0.005979166667,1.086013071e-06
0.006,9.784871509e-07
0.006020833333,8.780698408e-07
0.006041666667,7.766722092e-07
0.0060625,6.677332181e-07
0.006083333333,5.430168244e-07
0.006104166667,4.104797995e-07
0.006125,2.744863252e-07
0.006145833333,1.449568572e-07
0.006166666667,1.874312261e-08
0.0061875,-1.121258535e-07
0.006208333333,-2.549616624e-07
0.006229166667,-4.138409793e-07
0.00625,-5.779695016e-07
0.006270833333,-7.379924796e-07
0.006291666667,-8.83901464e-07
0.0063125,-1.017591671e-06
0.006333333333,-1.148621777e-06
0.006354166667,-1.283096708e-06
0.006375,-1.425546429e-06
0.006395833333,-1.564616582e-06
0.006416666667,-1.694971729e-06
0.0064375,-1.808518164e-06
0.006458333333,-1.91312688e-06
0.006479166667,-2.01749117e-06
0.0065,-2.129933591e-06
0.006520833333,-2.252048716e-06
0.006541666667,-2.37339691e-06
0.0065625,-2.487968914e-06
0.006583333333,-2.587617928e-06
0.006604166667,-2.677260682e-06
0.006625,-2.762559916e-06
0.006645833333,-2.846232519e-06
0.006666666667,-2.930096798e-06
0.0066875,-3.001942559e-06
0.006708333333,-3.060318249e-06
0.006729166667,-3.096807859e-06
0.00675,-3.118594577e-06
0.006770833333,-3.130286586e-06
0.006791666667,-3.137834028e-06
0.0068125,-3.145233222e-06
0.006833333333,-3.146968311e-06
0.006854166667,-3.142423338e-06
0.006875,-3.125096555e-06
0.006895833333,-3.09770212e-06
0.006916666667,-3.062918267e-06
0.0069375,-3.024231773e-06
0.006958333333,-2.986391337e-06
0.006979166667,-2.942324045e-06
0.007,-2.890859832e-06
0.007020833333,-2.818864914e-06
0.007041666667,-2.728422032e-06
0.0070625,-2.618575309e-06
0.007083333333,-2.498884214e-06
0.007104166667,-2.376877546e-06
0.007125,-2.251242222e-06
0.007145833333,-2.121132866e-06
0.007166666667,-1.974363158e-06
0.0071875,-1.812615892e-06
0.007208333333,-1.639217089e-06
0.007229166667,-1.465776222e-06
0.00725,-1.30427577e-06
0.007270833333,-1.149514446e-06
0.007291666667,-9.981769153e-07
0.0073125,-8.30285444e-07
0.007333333333,-6.462726105e-07
0.007354166667,-4.467900965e-07
0.007375,-2.46366767e-07
0.007395833333,-5.450409546e-08
0.007416666667,1.332753641e-07
0.0074375,3.243664537e-07
0.007458333333,5.358010071e-07
0.007479166667,7.652844261e-07
0.0075,1.004855562e-06
0.007520833333,1.236637786e-06
0.007541666667,1.447644536e-06
0.0075625,1.643872906e-06
0.007583333333,1.831306236e-06
0.007604166667,2.029090638e-06
0.007625,2.231514372e-06
0.007645833333,2.434809176e-06
0.007666666667,2.621454541e-06
0.0076875,2.786763162e-06
0.007708333333,2.938757461e-06
0.007729166667,3.087754067e-06
0.00775,3.25056385e-06
0.007770833333,3.422026111e-06
0.007791666667,3.596249599e-06
0.0078125,3.75792888e-06
0.007833333333,3.899672265e-06
0.007854166667,4.02827618e-06
0.007875,4.146137599e-06
0.007895833333,4.266984888e-06
0.007916666667,4.380604423e-06
0.0079375,4.485069439e-06
0.007958333333,4.565226391e-06
0.007979166667,4.619367246e-06
0.008,4.651688414e-06
0.008020833333,4.667952908e-06
0.008041666667,4.681356586e-06
0.0080625,4.689228717e-06
0.008083333333,4.694275958e-06
0.008104166667,4.687134151e-06
0.008125,4.664505013e-06
0.008145833333,4.62848493e-06
0.008166666667,4.578170774e-06
0.0081875,4.527232704e-06
0.008208333333,4.469492069e-06
0.008229166667,4.411012014e-06
0.00825,4.335811354e-06
0.008270833333,4.238851034e-06
0.008291666667,4.114292096e-06
0.0083125,3.963141808e-06
0.008333333333,3.800763125e-06
0.008354166667,3.629724688e-06
0.008375,3.459434538e-06
0.008395833333,3.278277518e-06
0.008416666667,3.078981536e-06
0.0084375,2.859194183e-06
0.008458333333,2.620943405e-06
0.008479166667,2.387186214e-06
0.0085,2.160549457e-06
0.008520833333,1.951274271e-06
0.008541666667,1.738394417e-06
0.0085625,1.510986294e-06
0.008583333333,1.258635393e-06
0.008604166667,9.864638741e-07
0.008625,7.145134191e-07
0.008645833333,4.483437124e-07
0.008666666667,1.931961719e-07
0.0086875,-7.184817008e-08
0.008708333333,-3.583774912e-07
0.008729166667,-6.69919018e-07
0.00875,-9.959539966e-07
0.008770833333,-1.307783805e-06
0.008791666667,-1.60049774e-06
0.0088125,-1.865294394e-06
0.008833333333,-2.12790701e-06
0.008854166667,-2.395326874e-06
0.008875,-2.674196367e-06
0.008895833333,-2.951547913e-06
0.008916666667,-3.206537258e-06
0.0089375,-3.438286058e-06
0.008958333333,-3.646907999e-06
0.008979166667,-3.85840076e-06
0.009,-4.081764473e-06
0.009020833333,-4.319375421e-06
0.009041666667,-4.560210527e-06
0.0090625,-4.780984909e-06
0.009083333333,-4.982881364e-06
0.009104166667,-5.158640761e-06
0.009125,-5.33065122e-06
0.009145833333,-5.497261554e-06
0.009166666667,-5.661544947e-06
0.0091875,-5.809736194e-06
0.009208333333,-5.926597623e-06
0.009229166667,-6.012481663e-06
0.00925,-6.064874469e-06
0.009270833333,-6.103454325e-06
0.009291666667,-6.132411272e-06
0.0093125,-6.159080385e-06
0.009333333333,-6.179866432e-06
0.009354166667,-6.18251579e-06
0.009375,-6.169580956e-06
0.009395833333,-6.130671409e-06
0.009416666667,-6.083849712e-06
0.0094375,-6.026122264e-06
0.009458333333,-5.969528047e-06
0.009479166667,-5.904990303e-06
0.0095,-5.820890237e-06
0.009520833333,-5.708887329e-06
0.009541666667,-5.555975349e-06
0.0095625,-5.376525223e-06
0.009583333333,-5.175625574e-06
0.009604166667,-4.971216185e-06
0.009625,-4.763770448e-06
0.009645833333,-4.541298495e-06
0.009666666667,-4.298525255e-06
0.0096875,-4.020350843e-06
0.009708333333,-3.72941804e-06
0.009729166667,-3.43324723e-06
0.00975,-3.157739684e-06
0.009770833333,-2.895895705e-06
0.009791666667,-2.632758424e-06
0.0098125,-2.349034958e-06
0.009833333333,-2.028666131e-06
0.009854166667,-1.689611508e-06
0.009875,-1.343574354e-06
0.009895833333,-1.013609904e-06
0.009916666667,-6.921331419e-07
0.0099375,-3.591261759e-07
0.009958333333,4.120334907e-10
0.009979166667,3.997475346e-07
0.01,8.205947211e-07
0.01002083333,1.241736072e-06
0.01004166667,1.609960236e-06
0.0100625,1.936275567e-06
0.01008333333,2.246581289e-06
0.01010416667,2.569749086e-06
0.010125,2.920533007e-06
0.01014583333,3.279085604e-06
0.01016666667,3.621685664e-06
0.0101875,3.924400971e-06
0.01020833333,4.196285317e-06
0.01022916667,4.461086519e-06
0.01025,4.73813634e-06
0.01027083333,5.043110377e-06
0.01029166667,5.353450888e-06
0.0103125,5.659216185e-06
0.01033333333,5.93091454e-06
0.01035416667,6.178127478e-06
0.010375,6.400311577e-06
0.01039583333,6.611531262e-06
0.01041666667,6.812429547e-06
0.0104375,6.989784652e-06
0.01045833333,7.146153166e-06
0.01047916667,7.269112302e-06
0.0105,7.368683782e-06
0.01052083333,7.450153134e-06
0.01054166667,7.516109235e-06
0.0105625,7.571459264e-06
0.01058333333,7.602450296e-06
0.01060416667,7.616102721e-06
0.010625,7.601486232e-06
0.01064583333,7.5777657e-06
0.01066666667,7.540274055e-06
0.0106875,7.502104836e-06
0.01070833333,7.456764251e-06
0.01072916667,7.395264674e-06
0.01075,7.307767191e-06
0.01077083333,7.176048712e-06
0.01079166667,7.00956798e-06
0.0108125,6.810324066e-06
0.01083333333,6.598097571e-06
0.01085416667,6.386578207e-06
0.010875,6.162101272e-06
0.01089583333,5.922502169e-06
0.01091666667,5.630281976e-06
0.0109375,5.303719263e-06
0.01095833333,4.944621651e-06
0.01097916667,4.599933618e-06
0.011,4.285647265e-06
0.01102083333,3.998849024e-06
0.01104166667,3.722439033e-06
0.0110625,3.405044254e-06
0.01108333333,3.043441438e-06
0.01110416667,2.639497552e-06
0.011125,2.226210427e-06
0.01114583333,1.834982299e-06
0.01116666667,1.459567443e-06
0.0111875,1.092151365e-06
0.01120833333,6.810043942e-07
0.01122916667,2.330447586e-07
0.01125,-2.51883705e-07
0.01127083333,-7.285217976e-07
0.01129166667,-1.173999181e-06
0.0113125,-1.580461571e-06
0.01133333333,-1.962058377e-06
0.01135416667,-2.350120894e-06
0.011375,-2.744355243e-06
0.01139583333,-3.143373533e-06
0.01141666667,-3.525185321e-06
0.0114375,-3.879557426e-06
0.01145833333,-4.220413757e-06
0.01147916667,-4.551156508e-06
0.0115,-4.90452112e-06
0.01152083333,-5.256174518e-06
0.01154166667,-5.609797881e-06
0.0115625,-5.933630746e-06
0.01158333333,-6.231335647e-06
0.01160416667,-6.51523851e-06
0.011625,-6.789354757e-06
0.01164583333,-7.070662377e-06
0.01166666667,-7.339946023e-06
0.0116875,-7.579723388e-06
0.01170833333,-7.770804586e-06
0.01172916667,-7.907266081e-06
0.01175,-8.006451935e-06
0.01177083333,-8.081399756e-06
0.01179166667,-8.162564882e-06
0.0118125,-8.234146662e-06
0.01183333333,-8.30785666e-06
0.01185416667,-8.351851648e-06
0.011875,-8.362078916e-06
0.01189583333,-8.344022717e-06
0.01191666667,-8.297280147e-06
0.0119375,-8.2487486e-06
0.01195833333,-8.201569472e-06
0.01197916667,-8.154087482e-06
0.012,-8.089878065e-06
0.01202083333,-7.975118024e-06
0.01204166667,-7.808359442e-06
0.0120625,-7.579443263e-06
0.01208333333,-7.327985713e-06
0.01210416667,-7.05415323e-06
0.012125,-6.788463452e-06
0.01214583333,-6.521677733e-06
0.01216666667,-6.238335573e-06
0.0121875,-5.918368515e-06
0.01220833333,-5.566656455e-06
0.01222916667,-5.201771728e-06
0.01225,-4.844698651e-06
0.01227083333,-4.501258445e-06
0.01229166667,-4.158149295e-06
0.0123125,-3.796686542e-06
0.01233333333,-3.414215826e-06
0.01235416667,-2.993451062e-06
0.012375,-2.568204764e-06
0.01239583333,-2.138151558e-06
0.01241666667,-1.714466407e-06
0.0124375,-1.265583705e-06
0.01245833333,-7.962658515e-07
0.01247916667,-3.000216395e-07
0.0125,2.01503326e-07
0.01252083333,6.803983297e-07
0.01254166667,1.132677994e-06
0.0125625,1.572941869e-06
0.01258333333,2.017334737e-06
0.01260416667,2.480320745e-06
0.012625,2.948116844e-06
0.01264583333,3.394552095e-06
0.01266666667,3.787539526e-06
0.0126875,4.145102594e-06
0.01270833333,4.476766662e-06
0.01272916667,4.831673778e-06
0.01275,5.214355042e-06
0.01277083333,5.631367458e-06
0.01279166667,6.026707524e-06
0.0128125,6.386196219e-06
0.01283333333,6.70029749e-06
0.01285416667,6.979672435e-06
0.012875,7.263280168e-06
0.01289583333,7.5570224e-06
0.01291666667,7.844804713e-06
0.0129375,8.108298971e-06
0.01295833333,8.314025763e-06
0.01297916667,8.464142411e-06
0.013,8.558800801e-06
0.01302083333,8.640881788e-06
0.01304166667,8.705955224e-06
0.0130625,8.774634807e-06
0.01308333333,8.825560144e-06
0.01310416667,8.84583369e-06
0.013125,8.846278433e-06
0.01314583333,8.81973483e-06
0.01316666667,8.779154086e-06
0.0131875,8.736476957e-06
0.01320833333,8.678551239e-06
0.01322916667,8.597233318e-06
0.01325,8.486682418e-06
0.01327083333,8.326897841e-06
0.01329166667,8.117116522e-06
0.0133125,7.903395272e-06
0.01333333333,7.652396562e-06
0.01335416667,7.394070508e-06
0.013375,7.109564649e-06
0.01339583333,6.776765531e-06
0.01341666667,6.406074135e-06
0.0134375,5.994125331e-06
0.01345833333,5.575168871e-06
0.01347916667,5.197994142e-06
0.0135,4.85114515e-06
0.01352083333,4.529072612e-06
0.01354166667,4.178825748e-06
0.0135625,3.781752412e-06
0.01358333333,3.31349338e-06
0.01360416667,2.819520205e-06
0.013625,2.32824118e-06
0.01364583333,1.885696292e-06
0.01366666667,1.471576979e-06
0.0136875,1.054710992e-06
0.01370833333,5.822132607e-07
0.01372916667,4.688879329e-08
0.01375,-5.392803359e-07
0.01377083333,-1.12964824e-06
0.01379166667,-1.663941362e-06
0.0138125,-2.137096089e-06
0.01383333333,-2.556281743e-06
0.01385416667,-2.958799314e-06
0.013875,-3.394667374e-06
0.01389583333,-3.832612492e-06
0.01391666667,-4.282188456e-06
0.0139375,-4.715918294e-06
0.01395833333,-5.123512437e-06
0.01397916667,-5.513167253e-06
0.014,-5.883799531e-06
0.01402083333,-6.225803645e-06
0.01404166667,-6.552097602e-06
0.0140625,-6.864925126e-06
0.01408333333,-7.180130979e-06
0.01410416667,-7.510614068e-06
0.014125,-7.876144082e-06
0.01414583333,-8.233889275e-06
0.01416666667,-8.539084774e-06
0.0141875,-8.748900655e-06
0.01420833333,-8.850468475e-06
0.01422916667,-8.881049325e-06
0.01425,-8.924275789e-06
0.01427083333,-8.997844816e-06
0.01429166667,-9.130767467e-06
0.0143125,-9.267804671e-06
0.01433333333,-9.32214607e-06
0.01435416667,-9.258612408e-06
0.014375,-9.086696082e-06
0.01439583333,-8.893753147e-06
0.01441666667,-8.771316061e-06
0.0144375,-8.730165064e-06
0.01445833333,-8.78427818e-06
0.01447916667,-8.806576261e-06
0.0145,-8.735885785e-06
0.01452083333,-8.488095773e-06
0.01454166667,-8.098892067e-06
0.0145625,-7.64322067e-06
0.01458333333,-7.226148682e-06
0.01460416667,-6.890794793e-06
0.014625,-6.650109299e-06
0.01464583333,-6.411522008e-06
0.01466666667,-6.110265076e-06
0.0146875,-5.682547453e-06
0.01470833333,-5.143475846e-06
0.01472916667,-4.571748832e-06
0.01475,-4.051924861e-06
0.01477083333,-3.626291573e-06
0.01479166667,-3.284638524e-06
0.0148125,-2.957184734e-06
0.01483333333,-2.56160024e-06
0.01485416667,-2.026462198e-06
0.014875,-1.375015245e-06
0.01489583333,-7.082639399e-07
0.01491666667,-8.436339272e-08
0.0149375,4.314275657e-07
0.01495833333,8.373221476e-07
0.01497916667,1.211621225e-06
0.015,1.611669859e-06
0.01502083333,2.12536338e-06
0.01504166667,2.742172228e-06
0.0150625,3.427517868e-06
0.01508333333,4.121774964e-06
0.01510416667,4.766194706e-06
0.015125,5.273716397e-06
0.01514583333,5.668580798e-06
0.01516666667,5.959695045e-06
0.0151875,6.242632935e-06
0.01520833333,6.559233043e-06
0.01522916667,6.95586732e-06
0.01525,7.408680631e-06
0.01527083333,7.880730664e-06
0.01529166667,8.293940482e-06
0.0153125,8.609512406e-06
0.01533333333,8.852413885e-06
0.01535416667,9.094887901e-06
0.015375,9.349946595e-06
0.01539583333,9.721496099e-06
0.01541666667,1.011212407e-05
0.0154375,1.044673172e-05
0.01545833333,1.063501804e-05
0.01547916667,1.064711159e-05
0.0155,1.052451717e-05
0.01552083333,1.035576497e-05
0.01554166667,1.026063273e-05
0.0155625,1.026454538e-05
0.01558333333,1.034791785e-05
0.01560416667,1.043316024e-05
0.015625,1.041574251e-05
0.01564583333,1.031269767e-05
0.01566666667,1.011133281e-05
0.0156875,9.887269698e-06
0.01570833333,9.682762538e-06
0.01572916667,9.527982911e-06
0.01575,9.337129995e-06
0.01577083333,9.081140888e-06
0.01579166667,8.72862347e-06
0.0158125,8.277817869e-06
0.01583333333,7.82916868e-06
0.01585416667,7.402164556e-06
0.015875,7.026497315e-06
0.01589583333,6.671105893e-06
0.01591666667,6.242978088e-06
0.0159375,5.75546801e-06
0.01595833333,5.153036e-06
0.01597916667,4.558724868e-06
0.016,3.983161605e-06
0.01602083333,3.483980663e-06
0.01604166667,3.005888402e-06
0.0160625,2.530179245e-06
0.01608333333,1.97339682e-06
0.01610416667,1.320610409e-06
0.016125,6.642933386e-07
0.01614583333,3.269822457e-08
0.01616666667,-5.049845413e-07
0.0161875,-1.00728505e-06
0.01620833333,-1.511290975e-06
0.01622916667,-2.058391601e-06
0.01625,-2.723116495e-06
0.01627083333,-3.438115982e-06
0.01629166667,-4.20022343e-06
0.0163125,-4.895525308e-06
0.01633333333,-5.506644811e-06
0.01635416667,-6.010152902e-06
0.016375,-6.436666354e-06
0.01639583333,-6.842646599e-06
0.01641666667,-7.22303048e-06
0.0164375,-7.649755389e-06
0.01645833333,-8.110307135e-06
0.01647916667,-8.650142263e-06
0.0165,-9.148097888e-06
0.01652083333,-9.571478586e-06
0.01654166667,-9.92330024e-06
0.0165625,-1.017751765e-05
0.01658333333,-1.046509169e-05
0.01660416667,-1.07293572e-05
0.016625,-1.111945858e-05
0.01664583333,-1.14953209e-05
0.01666666667,-1.183763197e-05
0.0166875,-1.20427012e-05
0.01670833333,-1.207781042e-05
0.01672916667,-1.20321638e-05
0.01675,-1.192712807e-05
0.01677083333,-1.187762791e-05
0.01679166667,-1.193645039e-05
0.0168125,-1.203998818e-05
0.01683333333,-1.209245238e-05
0.01685416667,-1.202753901e-05
0.016875,-1.179994706e-05
0.01689583333,-1.143627378e-05
0.01691666667,-1.10846122e-05
0.0169375,-1.07911992e-05
0.01695833333,-1.066348159e-05
0.01697916667,-1.060280465e-05
0.017,-1.054815039e-05
0.01702083333,-1.032174623e-05
0.01704166667,-9.887782653e-06
0.0170625,-9.299498743e-06
0.01708333333,-8.609039469e-06
0.01710416667,-7.991057828e-06
0.017125,-7.468788681e-06
0.01714583333,-7.03348951e-06
0.01716666667,-6.604790087e-06
0.0171875,-6.050094271e-06
0.01720833333,-5.403869181e-06
0.01722916667,-4.658770649e-06
0.01725,-3.952920451e-06
0.01727083333,-3.323990768e-06
0.01729166667,-2.807969395e-06
0.0173125,-2.345792382e-06
0.01733333333,-1.862780096e-06
0.01735416667,-1.288029125e-06
0.017375,-5.803562999e-07
0.01739583333,2.286990224e-07
0.01741666667,1.116086878e-06
0.0174375,2.012019195e-06
0.01745833333,2.81415214e-06
0.01747916667,3.51836934e-06
0.0175,4.101065315e-06
0.01752083333,4.55290774e-06
0.01754166667,5.044028057e-06
0.0175625,5.656334451e-06
0.01758333333,6.383940672e-06
0.01760416667,7.195013495e-06
0.017625,8.018859262e-06
0.01764583333,8.650420568e-06
0.01766666667,9.111446161e-06
0.0176875,9.456867701e-06
0.01770833333,9.810941265e-06
0.01772916667,1.025807433e-05
0.01775,1.082488143e-05
0.01777083333,1.144314774e-05
0.01779166667,1.192995387e-05
0.0178125,1.234346109e-05
0.01783333333,1.258142129e-05
0.01785416667,1.281882396e-05
0.017875,1.304248144e-05
0.01789583333,1.335916113e-05
0.01791666667,1.370859081e-05
0.0179375,1.403973147e-05
0.01795833333,1.433029593e-05
0.01797916667,1.450604941e-05
0.018,1.456304199e-05
0.01802083333,1.449420779e-05
0.01804166667,1.42832223e-05
0.0180625,1.411352878e-05
0.01808333333,1.387909469e-05
0.01810416667,1.37429688e-05
0.018125,1.363158299e-05
0.01814583333,1.357699603e-05
0.01816666667,1.353611151e-05
0.0181875,1.338626589e-05
0.01820833333,1.314327983e-05
0.01822916667,1.280402194e-05
0.01825,1.241617247e-05
0.01827083333,1.195213827e-05
0.01829166667,1.152671575e-05
0.0183125,1.105486899e-05
0.01833333333,1.059135047e-05
0.01835416667,1.016147507e-05
0.018375,9.575201148e-06
0.01839583333,8.969408555e-06
0.01841666667,8.247376172e-06
0.0184375,7.447275948e-06
0.01845833333,6.683871106e-06
0.01847916667,5.997702374e-06
0.0185,5.499316103e-06
0.01852083333,5.016564501e-06
0.01854166667,4.520696166e-06
0.0185625,3.785124591e-06
0.01858333333,2.957724746e-06
0.01860416667,2.019162366e-06
0.018625,1.078483706e-06
0.01864583333,3.606314181e-07
0.01866666667,-2.560122425e-07
0.0186875,-7.743653896e-07
0.01870833333,-1.409775223e-06
0.01872916667,-2.168526862e-06
0.01875,-3.105394626e-06
0.01877083333,-4.06526533e-06
0.01879166667,-4.961746981e-06
0.0188125,-5.790621799e-06
0.01883333333,-6.379649676e-06
0.01885416667,-6.958499853e-06
0.018875,-7.487234143e-06
0.01889583333,-8.043874914e-06
0.01891666667,-8.70562144e-06
0.0189375,-9.346712432e-06
0.01895833333,-1.004557453e-05
0.01897916667,-1.067992889e-05
0.019,-1.122932554e-05
0.01902083333,-1.161453929e-05
0.01904166667,-1.196814537e-05
0.0190625,-1.231144415e-05
0.01908333333,-1.270381199e-05
0.01910416667,-1.322642129e-05
0.019125,-1.379667538e-05
0.01914583333,-1.431760211e-05
0.01916666667,-1.463420449e-05
0.0191875,-1.476169564e-05
0.01920833333,-1.475753743e-05
0.01922916667,-1.464084744e-05
0.01925,-1.475035515e-05
0.01927083333,-1.494923981e-05
0.01929166667,-1.52422117e-05
0.0193125,-1.549541412e-05
0.01933333333,-1.547886859e-05
0.01935416667,-1.520307433e-05
0.019375,-1.474296278e-05
0.01939583333,-1.426823655e-05
0.01941666667,-1.39431786e-05
0.0194375,-1.386902841e-05
0.01945833333,-1.396961488e-05
0.01947916667,-1.405291096e-05
0.0195,-1.395624713e-05
0.01952083333,-1.351224546e-05
0.01954166667,-1.286165661e-05
0.0195625,-1.203556167e-05
0.01958333333,-1.132011766e-05
0.01960416667,-1.07635833e-05
0.019625,-1.040153984e-05
0.01964583333,-1.009951848e-05
0.01966666667,-9.640916687e-06
0.0196875,-9.04326771e-06
0.01970833333,-8.138317753e-06
0.01972916667,-7.147119959e-06
0.01975,-6.261170256e-06
0.01977083333,-5.531734132e-06
0.01979166667,-5.197881364e-06
0.0198125,-4.912274562e-06
0.01983333333,-4.548370271e-06
0.01985416667,-3.885458227e-06
0.019875,-2.796684385e-06
0.01989583333,-1.426252425e-06
0.01991666667,-7.135736269e-08
0.0199375,1.007130095e-06
0.01995833333,1.668603545e-06
0.01997916667,1.837491709e-06
0.02,1.890683166e-06
0.02002083333,2.300944061e-06
0.02004166667,3.080657279e-06
0.0200625,4.201595402e-06
0.02008333333,5.443539521e-06
0.02010416667,6.477187981e-06
0.020125,7.107598321e-06
0.02014583333,7.44804629e-06
0.02016666667,7.603627182e-06
0.0201875,8.024282579e-06
0.02020833333,8.824565157e-06
0.02022916667,9.780615073e-06
0.02025,1.080311449e-05
0.02027083333,1.144816088e-05
0.02029166667,1.166412039e-05
0.0203125,1.161818818e-05
0.02033333333,1.153363428e-05
0.02035416667,1.178272942e-05
0.020375,1.237412107e-05
0.02039583333,1.328159487e-05
0.02041666667,1.404719751e-05
0.0204375,1.467116726e-05
0.02045833333,1.492099727e-05
0.02047916667,1.483900269e-05
0.0205,1.464729758e-05
0.02052083333,1.44683745e-05
0.02054166667,1.448599505e-05
0.0205625,1.457478083e-05
0.02058333333,1.477964906e-05
0.02060416667,1.478585546e-05
0.020625,1.472228723e-05
0.02064583333,1.442685334e-05
0.02066666667,1.392281411e-05
0.0206875,1.356619396e-05
0.02070833333,1.322585831e-05
0.02072916667,1.312797485e-05
0.02075,1.309714935e-05
0.02077083333,1.291496665e-05
0.02079166667,1.255086681e-05
0.0208125,1.200391944e-05
0.02083333333,1.137898016e-05
0.02085416667,1.08336917e-05
0.020875,1.04521614e-05
0.02089583333,1.015544785e-05
0.02091666667,9.889055946e-06
0.0209375,9.560420949e-06
0.02095833333,9.091187167e-06
0.02097916667,8.386690752e-06
0.021,7.516197002e-06
0.02102083333,6.594609658e-06
0.02104166667,5.683249128e-06
0.0210625,4.970845566e-06
0.02108333333,4.243122021e-06
0.02110416667,3.52294137e-06
0.021125,2.88426736e-06
0.02114583333,2.02273668e-06
0.02116666667,1.049211278e-06
0.0211875,-2.151250555e-07
0.02120833333,-1.339026539e-06
0.02122916667,-2.232798124e-06
0.02125,-2.839083436e-06
0.02127083333,-3.080577244e-06
0.02129166667,-3.310892225e-06
0.0213125,-3.68474025e-06
0.02133333333,-4.298274234e-06
0.02135416667,-5.037477422e-06
0.021375,-5.747040177e-06
0.02139583333,-6.356260201e-06
0.02141666667,-6.885209132e-06
0.0214375,-7.318737971e-06
0.02145833333,-7.745145012e-06
0.02147916667,-8.394602446e-06
0.0215,-9.028249224e-06
0.02152083333,-9.726002645e-06
0.02154166667,-1.037228685e-05
0.0215625,-1.095728021e-05
0.02158333333,-1.161127875e-05
0.02160416667,-1.224876269e-05
0.021625,-1.28248621e-05
0.02164583333,-1.320943102e-05
0.02166666667,-1.356314351e-05
0.0216875,-1.364790842e-05
0.02170833333,-1.379899913e-05
0.02172916667,-1.391439218e-05
0.02175,-1.406089086e-05
0.02177083333,-1.413035716e-05
0.02179166667,-1.387943121e-05
0.0218125,-1.345546934e-05
0.02183333333,-1.300943222e-05
0.02185416667,-1.258065004e-05
0.021875,-1.24401422e-05
0.02189583333,-1.253162009e-05
0.02191666667,-1.27910107e-05
0.0219375,-1.333745422e-05
0.02195833333,-1.355992572e-05
0.02197916667,-1.36578692e-05
0.022,-1.350027014e-05
0.02202083333,-1.289116699e-05
0.02204166667,-1.219997193e-05
0.0220625,-1.154692018e-05
0.02208333333,-1.098436314e-05
0.02210416667,-1.073769454e-05
0.022125,-1.067782523e-05
0.02214583333,-1.028166116e-05
0.02216666667,-9.916774616e-06
0.0221875,-9.019782738e-06
0.02220833333,-7.761260349e-06
0.02222916667,-6.396114259e-06
0.02225,-5.006532319e-06
0.02227083333,-4.585188435e-06
0.02229166667,-4.992997219e-06
0.0223125,-5.899822554e-06
0.02233333333,-6.4681808e-06
0.02235416667,-6.087851489e-06
0.022375,-4.463493497e-06
0.02239583333,-1.836426122e-06
0.02241666667,5.412271094e-07
0.0224375,1.827190545e-06
0.02245833333,1.627321126e-06
0.02247916667,4.849491688e-07
0.0225,-3.71947948e-07
0.02252083333,-1.808934371e-07
0.02254166667,1.097917334e-06
0.0225625,2.901574135e-06
0.02258333333,4.582197562e-06
0.02260416667,5.662040166e-06
0.022625,6.059213774e-06
0.02264583333,6.208166724e-06
0.02266666667,6.460734767e-06
0.0226875,6.742759524e-06
0.02270833333,6.986832886e-06
0.02272916667,7.255895071e-06
0.02275,7.889295375e-06
0.02277083333,8.924715985e-06
0.02279166667,1.018517378e-05
0.0228125,1.101798625e-05
0.02283333333,1.132472426e-05
0.02285416667,1.073542899e-05
0.022875,9.758829037e-06
0.02289583333,9.5129908e-06
0.02291666667,1.007380251e-05
0.0229375,1.137992967e-05
0.02295833333,1.281538425e-05
0.02297916667,1.352206436e-05
0.023,1.339336814e-05
0.02302083333,1.278181298e-05
0.02304166667,1.239305675e-05
0.0230625,1.252687071e-05
0.02308333333,1.308416267e-05
0.02310416667,1.319131025e-05
0.023125,1.283531492e-05
0.02314583333,1.192269792e-05
0.02316666667,1.086613975e-05
0.0231875,9.910295375e-06
0.02320833333,9.915931514e-06
0.02322916667,1.004863498e-05
0.02325,1.021298613e-05
0.02327083333,9.941427379e-06
0.02329166667,9.295321433e-06
0.0233125,8.495455404e-06
0.02333333333,7.903222468e-06
0.02335416667,7.975075277e-06
0.023375,8.506987797e-06
0.02339583333,9.272140232e-06
0.02341666667,9.677369235e-06
0.0234375,9.68293898e-06
0.02345833333,9.232714547e-06
0.02347916667,8.333265214e-06
0.0235,7.383504908e-06
0.02352083333,5.969012818e-06
0.02354166667,4.551255188e-06
0.0235625,2.885715958e-06
0.02358333333,1.440951337e-06
0.02360416667,2.710478384e-07
0.023625,-1.049120328e-07
0.02364583333,-1.149778655e-07
0.02366666667,-1.189243903e-07
0.0236875,-4.145646813e-07
0.02370833333,-2.072155894e-06
0.02372916667,-3.882832061e-06
0.02375,-5.411498933e-06
0.02377083333,-5.905684247e-06
0.02379166667,-5.650073945e-06
0.0238125,-5.034021797e-06
0.02383333333,-5.650565072e-06
0.02385416667,-6.959466646e-06
0.023875,-8.42146801e-06
0.02389583333,-9.547638001e-06
0.02391666667,-9.31827617e-06
0.0239375,-8.606759366e-06
0.02395833333,-8.138320482e-06
0.02397916667,-8.660657841e-06
0.024,-1.010601409e-05
0.02402083333,-1.187295675e-05
0.02404166667,-1.279490971e-05
0.0240625,-1.293980949e-05
0.02408333333,-1.237097422e-05
0.02410416667,-1.156255348e-05
0.024125,-1.134540253e-05
0.02414583333,-1.158159921e-05
0.02416666667,-1.237329798e-05
0.0241875,-1.342742507e-05
0.02420833333,-1.476616126e-05
0.02422916667,-1.610634172e-05
0.02425,-1.70835865e-05
0.02427083333,-1.739300933e-05
0.02429166667,-1.700573193e-05
0.0243125,-1.652691753e-05
0.02433333333,-1.612767483e-05
0.02435416667,-1.609473657e-05
0.024375,-1.640706432e-05
0.02439583333,-1.663220428e-05
0.02441666667,-1.614867506e-05
0.0244375,-1.564110062e-05
0.02445833333,-1.524259824e-05
0.02447916667,-1.534755029e-05
0.0245,-1.580432581e-05
0.02452083333,-1.61529897e-05
0.02454166667,-1.528013308e-05
0.0245625,-1.41843484e-05
0.02458333333,-1.263054128e-05
0.02460416667,-1.103743671e-05
0.024625,-9.631618923e-06
0.02464583333,-8.491384506e-06
0.02466666667,-7.498744708e-06
0.0246875,-6.96677489e-06
0.02470833333,-7.104374163e-06
0.02472916667,-7.683817785e-06
0.02475,-8.340204658e-06
0.02477083333,-8.353987141e-06
0.02479166667,-7.977369933e-06
0.0248125,-7.928159903e-06
0.02483333333,-8.584690477e-06
0.02485416667,-1.045091449e-05
0.024875,-1.259261717e-05
0.02489583333,-1.360728675e-05
0.02491666667,-1.226832774e-05
0.0249375,-9.44745716e-06
0.02495833333,-5.611268989e-06
0.02497916667,-2.154748472e-06
0.025,7.926564649e-08
0.02502083333,1.672437747e-06
0.02504166667,2.428970674e-06
0.0250625,3.030141897e-06
0.02508333333,3.834610652e-06
0.02510416667,4.587193416e-06
0.025125,5.477976629e-06
0.02514583333,6.9179614e-06
0.02516666667,8.259706192e-06
0.0251875,8.616842933e-06
0.02520833333,8.405540939e-06
0.02522916667,6.586181371e-06
0.02525,5.641763437e-06
0.02527083333,5.479369975e-06
0.02529166667,6.141659014e-06
0.0253125,5.983973551e-06
0.02533333333,4.748002993e-06
0.02535416667,2.042343112e-06
0.025375,-4.688236004e-07
0.02539583333,-1.232938303e-06
0.02541666667,1.27950716e-06
0.0254375,5.643323675e-06
0.02545833333,1.096264714e-05
0.02547916667,1.407024956e-05
0.0255,1.492614683e-05
0.02552083333,1.408131629e-05
0.02554166667,1.333352338e-05
0.0255625,1.27524545e-05
0.02558333333,1.294583399e-05
0.02560416667,1.310172047e-05
0.025625,1.269613858e-05
0.02564583333,1.251131653e-05
0.02566666667,1.238042114e-05
0.0256875,1.180429172e-05
0.02570833333,9.829995179e-06
0.02572916667,5.304797014e-06
0.02575,3.905197445e-07
0.02577083333,-3.377469511e-06
0.02579166667,-4.035518032e-06
0.0258125,-9.032728485e-07
0.02583333333,4.036378868e-06
0.02585416667,8.933989193e-06
0.025875,1.208144386e-05
0.02589583333,1.348878141e-05
0.02591666667,1.31197512e-05
0.0259375,1.225820415e-05
0.02595833333,1.261131183e-05
0.02597916667,1.252145557e-05
0.026,1.200640872e-05
0.02602083333,1.139523374e-05
0.02604166667,1.037517086e-05
0.0260625,8.109076589e-06
0.02608333333,5.431039881e-06
0.02610416667,2.069513812e-06
0.026125,-2.079980845e-07
0.02614583333,-1.932081886e-06
0.02616666667,-2.235434522e-06
0.0261875,-2.763644488e-06
0.02620833333,-3.748643394e-06
0.02622916667,-5.923697245e-06
0.02625,-6.695944649e-06
0.02627083333,-6.211516848e-06
0.02629166667,-2.947156645e-06
0.0263125,2.224205673e-07
0.02633333333,2.639366357e-06
0.02635416667,2.077879799e-06
0.026375,7.230341907e-07
0.02639583333,-2.479787327e-07
0.02641666667,1.129474185e-06
0.0264375,3.082835065e-06
0.02645833333,5.376840818e-06
0.02647916667,4.496539987e-06
0.0265,2.177321221e-06
0.02652083333,-1.369181973e-06
0.02654166667,-2.996010608e-06
0.0265625,-3.791538802e-06
0.02658333333,-4.252484814e-06
0.02660416667,-6.123734238e-06
0.026625,-8.953742508e-06
0.02664583333,-1.099986548e-05
0.02666666667,-9.92969035e-06
0.0266875,-6.889425094e-06
0.02670833333,-3.654250577e-06
0.02672916667,-3.144315997e-06
0.02675,-5.149591289e-06
0.02677083333,-7.136015938e-06
0.02679166667,-5.20979529e-06
0.0268125,1.53975634e-07
0.02683333333,6.889803444e-06
0.02685416667,1.07871283e-05
0.026875,9.778514141e-06
0.02689583333,5.443744158e-06
0.02691666667,5.618112482e-07
0.0269375,-2.532786766e-06
0.02695833333,-3.114912943e-06
0.02697916667,-5.146013791e-06
0.027,-8.928879652e-06
0.02702083333,-1.295024231e-05
0.02704166667,-1.296580012e-05
0.0270625,-9.530590432e-06
0.02708333333,-1.785765107e-06
0.02710416667,5.123000847e-06
0.027125,9.486086128e-06
0.02714583333,9.602223145e-06
0.02716666667,8.026286196e-06
0.0271875,7.751259545e-06
0.02720833333,9.020195648e-06
0.02722916667,1.14272425e-05
0.02725,1.45363374e-05
0.02727083333,1.604171484e-05
0.02729166667,1.625042023e-05
0.0273125,1.292821889e-05
0.02733333333,7.109588751e-06
0.02735416667,-1.541633651e-06
0.027375,-8.734285075e-06
0.02739583333,-1.339216396e-05
0.02741666667,-1.221699495e-05
0.0274375,-8.179843462e-06
0.02745833333,-2.119611281e-06
0.02747916667,1.278864829e-06
0.0275,4.447539595e-06
0.02752083333,6.913968718e-06
0.02754166667,1.243368206e-05
0.0275625,1.793780757e-05
0.02758333333,2.170174412e-05
0.02760416667,1.976140811e-05
0.027625,1.49683101e-05
0.02764583333,1.275863178e-05
0.02766666667,1.540649828e-05
0.0276875,2.142634912e-05
0.02770833333,2.647537985e-05
0.02772916667,2.562509508e-05
0.02775,1.906240686e-05
0.02777083333,1.036101548e-05
0.02779166667,6.363853117e-06
0.0278125,7.052090496e-06
0.02783333333,1.071044881e-05
0.02785416667,8.48365471e-06
0.027875,-6.729515007e-07
0.02789583333,-1.174080899e-05
0.02791666667,-1.569493543e-05
0.0279375,-7.217009625e-06
0.02795833333,1.081951814e-05
0.02797916667,2.645999484e-05
0.028,3.121813643e-05
0.02802083333,2.6459742e-05
0.02804166667,1.544598126e-05
0.0280625,7.467201158e-06
0.02808333333,6.498510629e-06
0.02810416667,9.315822354e-06
0.028125,1.405833063e-05
0.02814583333,1.655797314e-05
0.02816666667,1.850209446e-05
0.0281875,1.917644477e-05
0.02820833333,1.61573862e-05
0.02822916667,5.716310625e-06
0.02825,-1.264787807e-05
0.02827083333,-3.169202319e-05
0.02829166667,-4.156639989e-05
0.0283125,-3.621160431e-05
0.02833333333,-1.712806261e-05
0.02835416667,5.585171493e-06
0.028375,2.410375419e-05
0.02839583333,3.00510801e-05
0.02841666667,2.571178811e-05
0.0284375,1.486635847e-05
0.02845833333,5.765174137e-06
0.02847916667,1.419696673e-06
0.0285,2.535802878e-06
0.02852083333,4.966583674e-06
0.02854166667,4.346627975e-06
0.0285625,1.087831834e-07
0.02858333333,-8.47290994e-06
0.02860416667,-1.996681567e-05
0.028625,-2.67482792e-05
0.02864583333,-2.512397623e-05
0.02866666667,-1.531807357e-05
0.0286875,-5.584088285e-06
0.02870833333,-4.862857168e-06
0.02872916667,-1.842976053e-05
0.02875,-3.988017852e-05
0.02877083333,-5.222107575e-05
0.02879166667,-5.048372623e-05
0.0288125,-3.276847201e-05
0.02883333333,-1.451157186e-05
0.02885416667,-8.904535207e-06
0.028875,-1.973697181e-05
0.02889583333,-3.750645556e-05
0.02891666667,-4.798291047e-05
0.0289375,-4.211240594e-05
0.02895833333,-2.646118446e-05
0.02897916667,-2.1306907e-05
0.029,-3.088390804e-05
0.02902083333,-4.246937533e-05
0.02904166667,-4.658340549e-05
0.0290625,-3.021455632e-05
0.02908333333,-8.572686056e-06
0.02910416667,3.374845619e-06
0.029125,-1.209124457e-05
0.02914583333,-4.071051808e-05
0.02916666667,-6.410463538e-05
0.0291875,-6.511765241e-05
0.02920833333,-4.532364983e-05
0.02922916667,-2.786384721e-05
0.02925,-3.049416046e-05
0.02927083333,-5.204154513e-05
0.02929166667,-7.541467494e-05
0.0293125,-7.796488353e-05
0.02933333333,-5.911036715e-05
0.02935416667,-3.436563566e-05
0.029375,-3.365261e-05
0.02939583333,-5.154285464e-05
0.02941666667,-7.006229134e-05
0.0294375,-6.756025687e-05
0.02945833333,-4.418341996e-05
0.02947916667,-3.027614366e-05
0.0295,-4.713003727e-05
0.02952083333,-9.774136561e-05
0.02954166667,-0.0001516728953
0.0295625,-0.0001532070455
0.02958333333,-7.764701149e-05
0.02960416667,4.377937876e-05
0.029625,0.000145957878
0.02964583333,0.0001731965895
0.02966666667,0.0001209661277
0.0296875,2.582489105e-05
0.02970833333,-4.952048039e-05
0.02972916667,-8.349367999e-05
0.02975,-7.847041707e-05
0.02977083333,-7.056500181e-05
0.02979166667,-5.943452197e-05
0.0298125,-3.654781176e-05
0.02983333333,1.286363931e-05
0.02985416667,5.119547131e-05
0.029875,2.647397014e-05
0.02989583333,-8.304238145e-05
0.02991666667,-0.0002590256627
0.0299375,-0.0004093193565
0.02995833333,-0.0004046714457
0.02997916667,-0.0002725156664
0.03,0.0002596312552
0.03002083333,0.0003981378977
0.03004166667,0.0004114465846
0.0300625,0.0002644671185
0.03008333333,8.859160152e-05
0.03010416667,-2.341562686e-05
0.030125,-4.797485963e-05
0.03014583333,-1.225982305e-05
0.03016666667,4.059627827e-05
0.0301875,5.929593317e-05
0.03020833333,7.097987691e-05
0.03022916667,7.967828424e-05
0.03025,8.991872164e-05
0.03027083333,5.870758105e-05
0.03029166667,-2.349813985e-05
0.0303125,-0.0001280028227
0.03033333333,-0.0001938397036
0.03035416667,-0.0001687957847
0.030375,-6.265125558e-05
0.03039583333,7.497766637e-05
0.03041666667,0.0001620679104
0.0304375,0.0001660706621
0.03045833333,0.0001104513431
0.03047916667,5.422446702e-05
0.0305,3.814663796e-05
0.03052083333,5.599272117e-05
0.03054166667,9.095267887e-05
0.0305625,9.288963338e-05
0.03058333333,7.320159057e-05
0.03060416667,4.665810775e-05
0.030625,4.66385718e-05
0.03064583333,7.775270933e-05
0.03066666667,0.000102349637
0.0306875,0.0001035745736
0.03070833333,7.491414726e-05
0.03072916667,4.556705244e-05
0.03075,3.662331073e-05
0.03077083333,5.778148261e-05
0.03079166667,8.185328625e-05
0.0308125,8.898621309e-05
0.03083333333,6.261534872e-05
0.03085416667,3.044030746e-05
0.030875,9.858336853e-06
0.03089583333,2.120332647e-05
0.03091666667,5.099939153e-05
0.0309375,7.216001541e-05
0.03095833333,7.105366967e-05
0.03097916667,5.820267688e-05
0.031,4.979277219e-05
0.03102083333,5.789646821e-05
0.03104166667,8.182571764e-05
0.0310625,8.969742339e-05
0.03108333333,7.680426643e-05
0.03110416667,4.986524436e-05
0.031125,3.153020225e-05
0.03114583333,4.190985055e-05
0.03116666667,6.746081635e-05
0.0311875,0.0001018174662
0.03120833333,0.0001072722953
0.03122916667,9.664651589e-05
0.03125,6.631658471e-05
0.03127083333,4.60258816e-05
0.03129166667,4.634009383e-05
0.0313125,5.831507951e-05
0.03133333333,7.653532521e-05
0.03135416667,7.761836605e-05
0.031375,7.149170415e-05
0.03139583333,4.872044519e-05
0.03141666667,3.515441858e-05
0.0314375,2.597509956e-05
0.03145833333,2.629184019e-05
0.03147916667,3.634122186e-05
0.0315,4.173922207e-05
0.03152083333,4.373699994e-05
0.03154166667,3.217032645e-05
0.0315625,2.122505612e-05
0.03158333333,1.426849212e-05
0.03160416667,2.302357461e-05
0.031625,4.914036253e-05
0.03164583333,8.209058433e-05
0.03166666667,0.0001107603166
0.0316875,0.000122532103
0.03170833333,0.000116503812
0.03172916667,9.285690612e-05
0.03175,7.242856373e-05
0.03177083333,5.164125832e-05
0.03179166667,4.241154966e-05
0.0318125,2.96433318e-05
0.03183333333,2.476110967e-05
0.03185416667,2.690054862e-05
0.031875,3.913095497e-05
0.03189583333,5.770594726e-05
0.03191666667,6.599296466e-05
0.0319375,6.483338075e-05
0.03195833333,4.314161924e-05
0.03197916667,3.144038055e-05
0.032,2.77707295e-05
0.03202083333,4.408681707e-05
0.03204166667,6.787978782e-05
0.0320625,8.375760808e-05
0.03208333333,8.253819396e-05
0.03210416667,7.21472752e-05
0.032125,6.465726619e-05
0.03214583333,6.328363088e-05
0.03216666667,7.283106243e-05
0.0321875,6.892415695e-05
0.03220833333,6.19130733e-05
0.03222916667,3.855737305e-05
0.03225,2.574826794e-05
0.03227083333,2.277630301e-05
0.03229166667,3.355467197e-05
0.0323125,4.680519851e-05
0.03233333333,4.764735422e-05
0.03235416667,4.283047383e-05
0.032375,2.157038034e-05
0.03239583333,1.355325185e-05
0.03241666667,1.463952503e-05
0.0324375,2.920653606e-05
0.03245833333,4.154376438e-05
0.03247916667,5.499210965e-05
0.0325,7.026741514e-05
0.03252083333,7.936877228e-05
0.03254166667,9.285168198e-05
0.0325625,9.362054698e-05
0.03258333333,0.0001024652156
0.03260416667,8.923074347e-05
0.032625,7.918288611e-05
0.03264583333,5.436320498e-05
0.03266666667,3.793654105e-05
0.0326875,2.79648666e-05
0.03270833333,1.862954741e-05
0.03272916667,1.854758739e-05
0.03275,1.12355192e-05
0.03277083333,1.057433383e-05
0.03279166667,-2.885217327e-07
0.0328125,-5.248027264e-06
0.03283333333,-1.474830879e-05
0.03285416667,-4.214789442e-07
0.032875,1.170711766e-05
0.03289583333,4.237033863e-05
0.03291666667,6.885826588e-05
0.0329375,7.478455518e-05
0.03295833333,7.933795132e-05
0.03297916667,6.559143367e-05
0.033,5.61366287e-05
0.03302083333,4.473247463e-05
0.03304166667,4.384440035e-05
0.0330625,2.296623643e-05
0.03308333333,1.309504296e-05
0.03310416667,-5.517871614e-06
0.033125,-6.281092283e-06
0.03314583333,4.028765943e-06
0.03316666667,1.015884664e-05
0.0331875,1.762152351e-05
0.03320833333,6.607418982e-06
0.03322916667,9.256677913e-06
0.03325,7.05274033e-07
0.03327083333,1.65952606e-05
0.03329166667,2.575993858e-05
0.0333125,4.053920566e-05
0.03333333333,3.695509804e-05
0.03335416667,2.635882265e-05
0.033375,2.141084769e-05
0.03339583333,1.598195377e-05
0.03341666667,2.328024493e-05
0.0334375,1.368603625e-05
0.03345833333,7.662373719e-06
0.03347916667,-1.882439392e-05
0.0335,-2.012012919e-05
0.03352083333,-2.910024705e-05
0.03354166667,-1.693946069e-05
0.0335625,-8.61243916e-06
0.03358333333,-2.636633781e-06
0.03360416667,2.933295491e-06
0.033625,-1.468181381e-07
0.03364583333,1.540850121e-06
0.03366666667,4.535783773e-06
0.0336875,1.391805927e-05
0.03370833333,7.641910997e-06
0.03372916667,2.276102168e-05
0.03375,1.405014063e-05
0.03377083333,1.533763862e-05
0.03379166667,1.657623761e-05
0.0338125,1.223300387e-05
0.03383333333,1.835588773e-05
0.03385416667,1.885891834e-07
0.033875,-6.773066161e-07
0.03389583333,-2.478007809e-05
0.03391666667,-2.713460708e-05
0.0339375,-3.445709081e-05
0.03395833333,-3.676454071e-05
0.03397916667,-2.949869668e-05
0.034,-3.730108438e-05
0.03402083333,-2.865214265e-05
0.03404166667,-3.454812395e-05
0.0340625,-2.985564242e-05
0.03408333333,-4.046444883e-05
0.03410416667,-2.165868682e-05
0.034125,-1.127273936e-05
0.03414583333,2.4356219e-05
0.03416666667,4.790363164e-05
0.0341875,5.784717359e-05
0.03420833333,5.479402171e-05
0.03422916667,3.114676656e-05
0.03425,2.514830339e-05
0.03427083333,4.815000466e-06
0.03429166667,8.785684258e-06
0.0343125,-3.331039352e-06
0.03433333333,-5.90912623e-06
0.03435416667,-2.07294579e-05
0.034375,-2.334418969e-05
0.03439583333,-2.676529039e-05
0.03441666667,-3.333144195e-05
0.0344375,-3.501259562e-05
0.03445833333,-5.155665349e-05
0.03447916667,-4.774769332e-05
0.0345,-4.731605804e-05
0.03452083333,-1.025535039e-05
0.03454166667,1.156823237e-05
0.0345625,4.285003524e-05
0.03458333333,5.530539784e-05
0.03460416667,5.013594637e-05
0.034625,4.051413271e-05
0.03464583333,2.69702723e-05
0.03466666667,2.9818435e-05
0.0346875,1.579018135e-05
0.03470833333,2.55748273e-05
0.03472916667,1.057530153e-05
0.03475,1.196945323e-05
0.03477083333,-4.98459076e-06
0.03479166667,-4.071234798e-06
0.0348125,-2.053009121e-05
0.03483333333,-3.051384738e-05
0.03485416667,-4.031069693e-05
0.034875,-5.163116657e-05
0.03489583333,-4.002871356e-05
0.03491666667,-3.183017543e-05
0.0349375,-1.637202672e-06
0.03495833333,9.752847291e-06
0.03497916667,3.35317236e-05
0.035,4.26721017e-05
0.03502083333,5.127433178e-05
0.03504166667,5.576697004e-05
0.0350625,4.970899317e-05
0.03508333333,4.749101208e-05
0.03510416667,3.062456381e-05
0.035125,3.086073048e-05
0.03514583333,2.193410546e-05
0.03516666667,3.675069456e-05
0.0351875,3.201254731e-05
0.03520833333,2.694299474e-05
0.03522916667,1.069401333e-05
0.03525,-1.052332209e-05
0.03527083333,-2.885582944e-05
0.03529166667,-3.942581679e-05
0.0353125,-3.555829608e-05
0.03533333333,-2.817002678e-05
0.03535416667,-2.052417221e-05
0.035375,-9.434873391e-06
0.03539583333,5.651243555e-06
0.03541666667,1.675640669e-05
0.0354375,2.525674063e-05
0.03545833333,1.947103192e-05
0.03547916667,9.84342023e-06
0.0355,3.077830115e-06
0.03552083333,6.146137821e-07
0.03554166667,1.744815563e-05
0.0355625,2.490790939e-05
0.03558333333,3.557449963e-05
0.03560416667,3.046391794e-05
0.035625,2.792577106e-05
0.03564583333,2.139779463e-05
0.03566666667,1.223529216e-05
0.0356875,-3.707271389e-06
0.03570833333,-2.192586908e-05
0.03572916667,-3.416266554e-05
0.03575,-4.1510968e-05
0.03577083333,-3.817816832e-05
0.03579166667,-3.090750397e-05
0.0358125,-1.795555363e-05
0.03583333333,-2.375788608e-05
0.03585416667,-2.728183972e-05
0.035875,-3.54853546e-05
0.03589583333,-3.418468259e-05
0.03591666667,-2.804457472e-05
0.0359375,-2.669333844e-05
0.03595833333,-2.379201032e-05
0.03597916667,-3.026294326e-05
0.036,-2.241696347e-05
0.03602083333,-2.011548713e-05
0.03604166667,-4.158227966e-06
0.0360625,-4.568086297e-06
0.03608333333,-1.219487785e-05
0.03610416667,-3.1698768e-05
0.036125,-4.828515739e-05
0.03614583333,-4.773466208e-05
0.03616666667,-4.04526254e-05
0.0361875,-1.384998905e-05
0.03620833333,-1.002866702e-05
0.03622916667,-1.378193338e-05
0.03625,-3.523663327e-05
0.03627083333,-4.679935955e-05
0.03629166667,-4.882482244e-05
0.0363125,-4.193549103e-05
0.03633333333,-3.585158265e-05
0.03635416667,-4.637009624e-05
0.036375,-5.302859427e-05
0.03639583333,-7.381293835e-05
0.03641666667,-7.689895574e-05
0.0364375,-7.558983634e-05
0.03645833333,-6.897680578e-05
0.03647916667,-6.859849236e-05
0.0365,-6.24784152e-05
0.03652083333,-6.44451211e-05
0.03654166667,-5.938333197e-05
0.0365625,-5.495467121e-05
0.03658333333,-5.117498949e-05
0.03660416667,-3.604644735e-05
0.036625,-3.072333129e-05
0.03664583333,-1.371864346e-05
0.03666666667,-4.432062269e-06
0.0366875,6.852576917e-06
0.03670833333,1.178312232e-06
0.03672916667,-1.341523057e-05
0.03675,-3.158165418e-05
0.03677083333,-5.184217298e-05
0.03679166667,-5.546258035e-05
0.0368125,-6.493690307e-05
0.03683333333,-5.447430885e-05
0.03685416667,-4.775563502e-05
0.036875,-4.22496305e-05
0.03689583333,-5.108959158e-05
0.03691666667,-5.806511763e-05
0.0369375,-7.343977632e-05
0.03695833333,-7.88577745e-05
0.03697916667,-7.836101577e-05
0.037,-6.742212281e-05
0.03702083333,-4.05764149e-05
0.03704166667,-2.3062119e-05
0.0370625,-1.078296191e-05
0.03708333333,-1.585313657e-05
0.03710416667,-2.845465133e-05
0.037125,-4.387163426e-05
0.03714583333,-4.821496987e-05
0.03716666667,-4.169702879e-05
0.0371875,-2.764156852e-05
0.03720833333,-1.202028216e-05
0.03722916667,-1.31340712e-05
0.03725,-1.960929148e-05
0.03727083333,-4.733235255e-05
0.03729166667,-7.44211502e-05
0.0373125,-0.0001020868222
0.03733333333,-0.0001186585869
0.03735416667,-0.0001243959996
0.037375,-0.0001192720083
0.03739583333,-0.0001015851885
0.03741666667,-7.417048619e-05
0.0374375,-5.022317782e-05
0.03745833333,-4.100484875e-05
0.03747916667,-4.044690286e-05
0.0375,-5.904848513e-05
0.03752083333,-7.091283624e-05
0.03754166667,-6.954163109e-05
0.0375625,-6.093836419e-05
0.03758333333,-4.590080789e-05
0.03760416667,-2.427718573e-05
0.037625,-2.608012437e-05
0.03764583333,-3.922700489e-05
0.03766666667,-6.350972399e-05
0.0376875,-0.0001115156265
0.03770833333,-0.0001467401744
0.03772916667,-0.0001800207101
0.03775,-0.000181576499
0.03777083333,-0.0001721181761
0.03779166667,-0.0001434416481
0.0378125,-0.0001082518211
0.03783333333,-8.098949911e-05
0.03785416667,-5.123299343e-05
0.037875,-4.92244435e-05
0.03789583333,-3.926450154e-05
0.03791666667,-5.221235915e-05
0.0379375,-6.223910896e-05
0.03795833333,-7.390771498e-05
0.03797916667,-7.199422544e-05
0.038,-7.792496035e-05
0.03802083333,-7.063725207e-05
0.03804166667,-6.340943219e-05
0.0380625,-7.583571278e-05
0.03808333333,-9.533204138e-05
0.03810416667,-0.0001429545373
0.038125,-0.0001707674674
0.03814583333,-0.0001915351895
0.03816666667,-0.0001807370572
0.0381875,-0.0001524280815
0.03820833333,-0.0001313159592
0.03822916667,-0.0001182443666
0.03825,-0.0001211035706
0.03827083333,-0.0001154820202
0.03829166667,-0.0001091382874
0.0383125,-9.342691919e-05
0.03833333333,-9.520992899e-05
0.03835416667,-9.779918037e-05
0.038375,-0.0001141662797
0.03839583333,-0.0001147607836
0.03841666667,-0.0001157921797
0.0384375,-0.000102654747
0.03845833333,-0.0001022994766
0.03847916667,-0.0001147191651
0.0385,-0.0001225913293
0.03852083333,-0.0001405219373
0.03854166667,-0.0001236132521
0.0385625,-0.0001107290445
0.03858333333,-8.872304898e-05
0.03860416667,-8.648615767e-05
0.038625,-9.789935575e-05
0.03864583333,-0.0001226962195
0.03866666667,-0.0001347696525
0.0386875,-0.0001257436816
0.03870833333,-0.000104106759
0.03872916667,-8.136989345e-05
0.03875,-7.393497799e-05
0.03877083333,-6.112208939e-05
0.03879166667,-6.433906674e-05
0.0388125,-6.739819219e-05
0.03883333333,-7.045400707e-05
0.03885416667,-7.526967966e-05
0.038875,-8.98057333e-05
0.03889583333,-9.978681919e-05
0.03891666667,-0.0001026234531
0.0389375,-8.944852743e-05
0.03895833333,-6.976641453e-05
0.03897916667,-7.426928642e-05
0.039,-7.444534276e-05
0.03902083333,-9.333472553e-05
0.03904166667,-0.0001036236426
0.0390625,-0.0001069438731
0.03908333333,-9.379330731e-05
0.03910416667,-7.020503836e-05
0.039125,-4.869794429e-05
0.03914583333,-2.094818774e-05
0.03916666667,-1.651907769e-05
0.0391875,1.691358193e-06
0.03920833333,-5.862384569e-06
0.03922916667,-1.454892845e-05
0.03925,-4.148577136e-05
0.03927083333,-6.150995614e-05
0.03929166667,-7.738269051e-05
0.0393125,-6.658966595e-05
0.03933333333,-5.424892879e-05
0.03935416667,-5.017643343e-05
0.039375,-5.106314711e-05
0.03939583333,-7.911909779e-05
0.03941666667,-8.596605039e-05
0.0394375,-0.0001054429886
0.03945833333,-8.177432028e-05
0.03947916667,-6.463201134e-05
0.0395,-3.040327647e-05
0.03952083333,-9.775452781e-06
0.03954166667,1.856198651e-06
0.0395625,5.22641858e-06
0.03958333333,-8.106166206e-06
0.03960416667,-7.099162758e-06
0.039625,-3.441054287e-05
0.03964583333,-3.40599945e-05
0.03966666667,-5.122758375e-05
0.0396875,-4.306419214e-05
0.03970833333,-3.491069219e-05
0.03972916667,-2.733645124e-05
0.03975,-2.682867125e-05
0.03977083333,-5.693706044e-05
0.03979166667,-8.144543972e-05
0.0398125,-0.0001151549804
0.03983333333,-0.0001181600383
0.03985416667,-0.0001146695286
0.039875,-9.242866508e-05
0.03989583333,-7.915860624e-05
0.03991666667,-6.145254883e-05
0.0399375,-5.629517909e-05
0.03995833333,-6.100728933e-05
0.03997916667,-6.596879393e-05
0.04,-9.115075954e-05
0.04002083333,-8.758607873e-05
0.04004166667,-8.290597179e-05
0.0400625,-6.141249469e-05
0.04008333333,-5.359854913e-05
0.04010416667,-3.591523273e-05
0.040125,-4.497943883e-05
0.04014583333,-6.132019189e-05
0.04016666667,-6.94051123e-05
0.0401875,-9.01003441e-05
0.04020833333,-9.153676365e-05
0.04022916667,-0.000101611462
0.04025,-9.808035975e-05
0.04027083333,-0.0001124437331
0.04029166667,-0.0001051716463
0.0403125,-0.0001116592466
0.04033333333,-0.0001010656124
0.04035416667,-9.104475612e-05
0.040375,-8.776668255e-05
0.04039583333,-8.757115575e-05
0.04041666667,-9.824689914e-05
0.0404375,-8.21321446e-05
0.04045833333,-8.132797666e-05
0.04047916667,-5.807235721e-05
0.0405,-6.303262489e-05
0.04052083333,-6.500032032e-05
0.04054166667,-8.414791955e-05
0.0405625,-0.0001002286954
0.04058333333,-0.0001077042471
0.04060416667,-0.0001158721861
0.040625,-0.0001041032447
0.04064583333,-0.0001212947609
0.04066666667,-0.0001253478986
0.0406875,-0.000157547096
0.04070833333,-0.0001597488881
0.04072916667,-0.0001700129069
0.04075,-0.000171849766
0.04077083333,-0.0001675606327
0.04079166667,-0.0001797815785
0.0408125,-0.0001641900017
0.04083333333,-0.0001668711193
0.04085416667,-0.0001492903102
0.040875,-0.0001553240727
0.04089583333,-0.0001599319367
0.04091666667,-0.0001965873962
0.0409375,-0.0002107533364
0.04095833333,-0.0002203104814
0.04097916667,-0.0002144102618
0.041,-0.0002032173943
0.04102083333,-0.0002018835366
0.04104166667,-0.000202349489
0.0410625,-0.0002203001932
0.04108333333,-0.0002192234097
0.04110416667,-0.0002413763868
0.041125,-0.000239305271
0.04114583333,-0.0002576743718
0.04116666667,-0.0002564193273
0.0411875,-0.0002610266674
0.04120833333,-0.0002546635806
0.04122916667,-0.0002254410647
0.04125,-0.000227081764
0.04127083333,-0.0002149190987
0.04129166667,-0.0002331473515
0.0413125,-0.0002354256139
0.04133333333,-0.0002558105043
0.04135416667,-0.0002598983992
0.041375,-0.0002642843465
0.04139583333,-0.0002691168047
0.04141666667,-0.0002767023398
0.0414375,-0.0002873229387
0.04145833333,-0.0002768581035
0.04147916667,-0.0002829447621
0.0415,-0.0002657125879
0.04152083333,-0.0002752726432
0.04154166667,-0.0002678513702
0.0415625,-0.0002772984444
0.04158333333,-0.0002692336857
0.04160416667,-0.0002446279104
0.041625,-0.0002260478504
0.04164583333,-0.0002029807947
0.04166666667,-0.0001968303986
0.0416875,-0.0001954088802
0.04170833333,-0.0002054335782
0.04172916667,-0.0001873289148
0.04175,-0.0002019316016
0.04177083333,-0.0001979849476
0.04179166667,-0.0002230020036
0.0418125,-0.0002529969497
0.04183333333,-0.0002707706881
0.04185416667,-0.0002812806633
0.041875,-0.0002716151066
0.04189583333,-0.0002720959601
0.04191666667,-0.000260301691
0.0419375,-0.0002655079879
0.04195833333,-0.0002572307421
0.04197916667,-0.000250444893
0.042,-0.0002339368366
0.04202083333,-0.0002261495247
0.04204166667,-0.000238512308
0.0420625,-0.0002512350038
0.04208333333,-0.0002744437952
0.04210416667,-0.0002685797517
0.042125,-0.0002736996976
0.04214583333,-0.0002572837693
0.04216666667,-0.0002569636272
0.0421875,-0.0002605699701
0.04220833333,-0.0002753984591
0.04222916667,-0.0003001855221
0.04225,-0.000313985016
0.04227083333,-0.0003387238248
0.04229166667,-0.00035083291
0.0423125,-0.0003683857503
0.04233333333,-0.0003620052594
0.04235416667,-0.0003586683597
0.042375,-0.000344495842
0.04239583333,-0.000353307114
0.04241666667,-0.0003757031809
0.0424375,-0.0004022786161
0.04245833333,-0.0004349707451
0.04247916667,-0.0004469236301
0.0425,-0.0004406657245
0.04252083333,-0.0004120520025
0.04254166667,-0.00040710959
0.0425625,-0.0003945559147
0.04258333333,-0.0004004044167
0.04260416667,-0.0004050151911
0.042625,-0.0004157378862
0.04264583333,-0.0004050810821
0.04266666667,-0.0004087211273
0.0426875,-0.0004131888854
0.04270833333,-0.0004027487303
0.04272916667,-0.0004107496934
0.04275,-0.0003844538587
0.04277083333,-0.0003926909412
0.04279166667,-0.000388470391
0.0428125,-0.0004083536332
0.04283333333,-0.0004227447207
0.04285416667,-0.0004228360776
0.042875,-0.0004139095254
0.04289583333,-0.0003749551252
0.04291666667,-0.0003579963522
0.0429375,-0.0003327787854
0.04295833333,-0.0003461970773
0.04297916667,-0.0003498719889
0.043,-0.0003667547426
0.04302083333,-0.0003691184102
0.04304166667,-0.0003806156165
0.0430625,-0.0003659166978
0.04308333333,-0.0003501599713
0.04310416667,-0.0003383301373
0.043125,-0.0003010728105
0.04314583333,-0.0003039172152
0.04316666667,-0.000282093446
0.0431875,-0.0002905573056
0.04320833333,-0.0002683113853
0.04322916667,-0.000248845492
0.04325,-0.0002133591915
0.04327083333,-0.0001796195866
0.04329166667,-0.0001518647914
0.0433125,-0.0001171715849
0.04333333333,-0.0001149604868
0.04335416667,-9.196322208e-05
0.043375,-9.858239355e-05
0.04339583333,-8.780799544e-05
0.04341666667,-0.0001004254518
0.0434375,-9.786846931e-05
0.04345833333,-0.0001120297238
0.04347916667,-0.0001181849511
0.0435,-0.0001176693331
0.04352083333,-0.0001212090137
0.04354166667,-9.027957276e-05
0.0435625,-8.066563896e-05
0.04358333333,-4.081376392e-05
0.04360416667,-2.837159627e-05
0.043625,-3.624787496e-06
0.04364583333,1.884995072e-06
0.04366666667,8.823973985e-06
0.0436875,2.313778532e-05
0.04370833333,2.972992843e-05
0.04372916667,5.549038178e-05
0.04375,5.925726509e-05
0.04377083333,9.79542092e-05
0.04379166667,9.312119073e-05
0.0438125,0.0001109239311
0.04383333333,9.781681001e-05
0.04385416667,0.000102039623
0.043875,8.585402247e-05
0.04389583333,7.473329606e-05
0.04391666667,7.852308772e-05
0.0439375,8.103164146e-05
0.04395833333,9.779742686e-05
0.04397916667,9.817272803e-05
0.044,0.0001156240396
0.04402083333,0.0001111912716
0.04404166667,0.0001208472459
0.0440625,0.0001217512036
0.04408333333,0.0001287978812
0.04410416667,0.0001357231231
0.044125,0.0001390269608
0.04414583333,0.0001519677025
0.04416666667,0.0001374795247
0.0441875,0.0001620346884
0.04420833333,0.0001396868029
0.04422916667,0.0001625977748
0.04425,0.0001459514315
0.04427083333,0.000153801564
0.04429166667,0.0001421671768
0.0443125,0.0001413445571
0.04433333333,0.0001615154033
0.04435416667,0.0001583966368
0.044375,0.0001658935507
0.04439583333,0.0001477747282
0.04441666667,0.0001480245555
0.0444375,0.0001305980404
0.04445833333,0.0001360110764
0.04447916667,0.0001297905692
0.0445,0.000143231664
0.04452083333,0.0001458038023
0.04454166667,0.0001291335357
0.0445625,0.0001131273166
0.04458333333,7.394811837e-05
0.04460416667,6.594119623e-05
0.044625,4.37229719e-05
0.04464583333,6.184460653e-05
0.04466666667,5.600517034e-05
0.0446875,5.264381616e-05
0.04470833333,4.886289389e-05
0.04472916667,5.050755863e-05
0.04475,6.397352263e-05
0.04477083333,7.080295472e-05
0.04479166667,8.217029244e-05
0.0448125,6.624760863e-05
0.04483333333,6.074615158e-05
0.04485416667,4.109666042e-05
0.044875,5.14409985e-05
0.04489583333,5.922222772e-05
0.04491666667,8.208652434e-05
0.0449375,8.343456284e-05
0.04495833333,7.396673027e-05
0.04497916667,5.903976853e-05
0.045,3.767529415e-05
0.04502083333,4.605866707e-05
0.04504166667,4.573156912e-05
0.0450625,7.389375241e-05
0.04508333333,8.152806549e-05
0.04510416667,0.0001036813628
0.045125,0.0001124722257
0.04514583333,0.0001289408247
0.04516666667,0.0001421102934
0.0451875,0.0001494060707
0.04520833333,0.0001664771262
0.04522916667,0.0001700897992
0.04525,0.0001866355306
0.04527083333,0.0002041014959
0.04529166667,0.0002268209937
0.0453125,0.0002454103087
0.04533333333,0.0002558686247
0.04535416667,0.0002543134615
0.045375,0.000266842253
0.04539583333,0.0002862494439
0.04541666667,0.0003169443808
0.0454375,0.0003579523182
0.04545833333,0.0003709695302
0.04547916667,0.0003902118187
0.0455,0.0003839241108
0.04552083333,0.0003951562685
0.04554166667,0.0004028740514
0.0455625,0.0004240424023
0.04558333333,0.0004396165023
0.04560416667,0.0004445344093
0.045625,0.0004435644078
0.04564583333,0.0004378638696
0.04566666667,0.0004549199657
0.0456875,0.0004767746141
0.04570833333,0.0005060948897
0.04572916667,0.0005197019782
0.04575,0.0005204072222
0.04577083333,0.0005145162577
0.04579166667,0.0005136197433
0.0458125,0.00052902475
0.04583333333,0.0005486839218
0.04585416667,0.0005670834216
0.045875,0.0005657781148
0.04589583333,0.00056492351
0.04591666667,0.000551993202
0.0459375,0.0005571672227
0.04595833333,0.0005571852671
0.04597916667,0.0005542961881
0.046,0.0005369716091
0.04602083333,0.0005139085697
0.04604166667,0.0005018371157
0.0460625,0.0005040997639
0.04608333333,0.0005209030933
0.04610416667,0.0005338996416
0.046125,0.0005324655212
0.04614583333,0.0005080570118
0.04616666667,0.0004741256998
0.0461875,0.0004444054211
0.04620833333,0.000431034161
0.04622916667,0.000432787172
0.04625,0.0004323436006
0.04627083333,0.000438608171
0.04629166667,0.0004400310281
0.0463125,0.000459075789
0.04633333333,0.0004776600399
0.04635416667,0.0004944305401
0.046375,0.0004969496513
0.04639583333,0.0004905349342
0.04641666667,0.0004767011851
0.0464375,0.000473106571
0.04645833333,0.0004934512544
0.04647916667,0.0005203595501
0.0465,0.0005477957893
0.04652083333,0.0005545224412
0.04654166667,0.0005394651089
0.0465625,0.0005230540992
0.04658333333,0.0004994979827
0.04660416667,0.0004921781365
0.046625,0.0004872516729
0.04664583333,0.0004957156489
0.04666666667,0.00049686688
0.0466875,0.0005030666944
0.04670833333,0.0005047362647
0.04672916667,0.0005132545484
0.04675,0.0005269252579
0.04677083333,0.0005437434302
0.04679166667,0.0005619041622
0.0468125,0.0005869509187
0.04683333333,0.0006123197963
0.04685416667,0.0006401492865
0.046875,0.0006654124008
0.04689583333,0.0006800732808
0.04691666667,0.000690470566
0.0469375,0.000691398629
0.04695833333,0.0006902769092
0.04697916667,0.000694632181
0.047,0.0006968561793
0.04702083333,0.000708231586
0.04704166667,0.0007183966227
0.0470625,0.0007355734706
0.04708333333,0.0007384939818
0.04710416667,0.0007389733801
0.047125,0.0007350871456
0.04714583333,0.0007308763452
0.04716666667,0.0007280249847
0.0471875,0.0007290912909
0.04720833333,0.000730394444
0.04722916667,0.0007475453313
0.04725,0.0007707529003
0.04727083333,0.000797355664
0.04729166667,0.0008246992365
0.0473125,0.0008331234567
0.04733333333,0.0008335914463
0.04735416667,0.0008212793036
0.047375,0.0008049336611
0.04739583333,0.0008029704331
0.04741666667,0.0008017012733
0.0474375,0.0008161690785
0.04745833333,0.0008303622599
0.04747916667,0.0008424721309
0.0475,0.000846001436
0.04752083333,0.0008507875609
0.04754166667,0.0008532004431
0.0475625,0.0008630806697
0.04758333333,0.0008651193348
0.04760416667,0.0008615461993
0.047625,0.000855352846
0.04764583333,0.0008507975144
0.04766666667,0.000855431892
0.0476875,0.0008759222692
0.04770833333,0.0009135165019
0.04772916667,0.0009446408949
0.04775,0.0009660063661
0.04777083333,0.00097108318
0.04779166667,0.0009632965084
0.0478125,0.0009612351423
0.04783333333,0.0009614436422
0.04785416667,0.0009807905881
0.047875,0.00100328424
0.04789583333,0.001034757821
0.04791666667,0.001058376161
0.0479375,0.001085016294
0.04795833333,0.001102297683
0.04797916667,0.001121416804
0.048,0.001132622128
0.04802083333,0.001145016286
0.04804166667,0.001153080957
0.0480625,0.001154279336
0.04808333333,0.001162580564
0.04810416667,0.001171754207
0.048125,0.001196153578
0.04814583333,0.001222443767
0.04816666667,0.001253128867
0.0481875,0.001277056872
0.04820833333,0.001295196475
0.04822916667,0.001313496032
0.04825,0.001330581028
0.04827083333,0.001360921422
0.04829166667,0.001384111471
0.0483125,0.001412813202
0.04833333333,0.001413704013
0.04835416667,0.001407838892
0.048375,0.001387644326
0.04839583333,0.001369936508
0.04841666667,0.001359256916
0.0484375,0.001365201082
0.04845833333,0.001383538474
0.04847916667,0.001395229832
0.0485,0.001391222351
0.04852083333,0.001368764904
0.04854166667,0.001340608695
0.0485625,0.001303154626
0.04858333333,0.001276506111
0.04860416667,0.001259613317
0.048625,0.001248228713
0.04864583333,0.001251317328
0.04866666667,0.001251040259
0.0486875,0.001260367571
0.04870833333,0.001267763204
0.04872916667,0.001283468446
0.04875,0.001285774051
0.04877083333,0.001281334902
0.04879166667,0.001259735553
0.0488125,0.001242782455
0.04883333333,0.001229501446
0.04885416667,0.001226245542
0.048875,0.00123704155
0.04889583333,0.001251216163
0.04891666667,0.001269993139
0.0489375,0.001279476332
0.04895833333,0.001283520833
0.04897916667,0.001269692322
0.049,0.001246256172
0.04902083333,0.001220036065
0.04904166667,0.001194194541
0.0490625,0.001187964808
0.04908333333,0.001187955611
0.04910416667,0.001210160903
0.049125,0.001233273884
0.04914583333,0.001263708458
0.04916666667,0.00128318544
0.0491875,0.001305584447
0.04920833333,0.001317634596
0.04922916667,0.001328727929
0.04925,0.001339544076
0.04927083333,0.001353442087
0.04929166667,0.001377806184
0.0493125,0.001411939971
0.04933333333,0.001456068479
0.04935416667,0.001500312705
0.049375,0.001537589589
0.04939583333,0.001557630021
0.04941666667,0.001569160144
0.0494375,0.00157735846
0.04945833333,0.001588235726
0.04947916667,0.001606052276
0.0495,0.001625324017
0.04952083333,0.001648636186
0.04954166667,0.001665309421
0.0495625,0.001693753176
0.04958333333,0.001720397966
0.04960416667,0.00176045543
0.049625,0.001794948708
0.04964583333,0.001822020276
0.04966666667,0.001843161066
0.0496875,0.001855822164
0.04970833333,0.001869625179
0.04972916667,0.001885170932
0.04975,0.001905486104
0.04977083333,0.001919416944
0.04979166667,0.001931895502
0.0498125,0.001935971552
0.04983333333,0.001944231801
0.04985416667,0.001959526213
0.049875,0.001980841625
0.04989583333,0.002007404342
0.04991666667,0.002023101086
0.0499375,0.002033823403
0.04995833333,0.002026083181
0.04997916667,0.002021385124
0.05,0.002033904428
0.05002083333,0.002034750069
0.05004166667,0.002031139331
0.0500625,0.002027645707
0.05008333333,0.00202529924
0.05010416667,0.002024922287
0.050125,0.002026811941
0.05014583333,0.002023315057
0.05016666667,0.002015856327
0.0501875,0.00199779938
0.05020833333,0.001985562034
0.05022916667,0.001975734485
0.05025,0.001973139821
0.05027083333,0.00197797548
0.05029166667,0.001980711939
0.0503125,0.001981154783
0.05033333333,0.001974469982
0.05035416667,0.001976082567
0.050375,0.001973859267
0.05039583333,0.001978981541
0.05041666667,0.001969323261
0.0504375,0.001954155508
0.05045833333,0.001929105725
0.05047916667,0.001913008979
0.0505,0.001914028428
0.05052083333,0.001924924087
0.05054166667,0.001946022618
0.0505625,0.001955365529
0.05058333333,0.001960620517
0.05060416667,0.001958925743
0.050625,0.001960740425
0.05064583333,0.001970495563
0.05066666667,0.001980504254
0.0506875,0.00198792317
0.05070833333,0.001988728996
0.05072916667,0.001996171894
0.05075,0.002009575954
0.05077083333,0.002036195248
0.05079166667,0.002065895358
0.0508125,0.002099972917
0.05083333333,0.002117239172
0.05085416667,0.00212524063
0.050875,0.002117205411
0.05089583333,0.002113350434
0.05091666667,0.002119091572
0.0509375,0.002143022837
0.05095833333,0.002177040558
0.05097916667,0.00220508012
0.051,0.002217198256
0.05102083333,0.002210189123
0.05104166667,0.002198229078
0.0510625,0.002183282515
0.05108333333,0.00217976491
0.05110416667,0.002175594447
0.051125,0.00217531505
0.05114583333,0.002174972324
0.05116666667,0.002169214655
0.0511875,0.002173786983
0.05120833333,0.002172721084
0.05122916667,0.002183495788
0.05125,0.002187701175
0.05127083333,0.002199235139
0.05129166667,0.002209856175
0.0513125,0.002225356875
0.05133333333,0.002236997942
0.05135416667,0.002237856155
0.051375,0.002229658421
0.05139583333,0.002214959124
0.05141666667,0.002204201883
0.0514375,0.002190324012
0.05145833333,0.002179076662
0.05147916667,0.002167365048
0.0515,0.002151606837
0.05152083333,0.002133729169
0.05154166667,0.002115552314
0.0515625,0.002105097054
0.05158333333,0.002100504935
0.05160416667,0.002101022284
0.051625,0.002092721406
0.05164583333,0.002082946943
0.05166666667,0.002065495122
0.0516875,0.002058698796
0.05170833333,0.002059248975
0.05172916667,0.002064214321
0.05175,0.002063821536
0.05177083333,0.002054598415
0.05179166667,0.002040142892
0.0518125,0.00202648202
0.05183333333,0.002024404472
0.05185416667,0.002036263468
0.051875,0.002062981017
0.05189583333,0.002080048202
0.05191666667,0.002080801874
0.0519375,0.002060854575
0.05195833333,0.002035910962
0.05197916667,0.00203019334
0.052,0.002042549662
0.05202083333,0.002070437651
0.05204166667,0.002093478339
0.0520625,0.002104813
0.05208333333,0.002096115611
0.05210416667,0.002090122784
0.052125,0.002086199354
0.05214583333,0.002098205034
0.05216666667,0.002109943191
0.0521875,0.002114747651
0.05220833333,0.002117102267
0.05222916667,0.002121941885
0.05225,0.002149656881
0.05227083333,0.002191007137
0.05229166667,0.002240518108
0.0523125,0.002278321423
0.05233333333,0.002298966516
0.05235416667,0.002309484174
0.052375,0.002322577871
0.05239583333,0.002340684412
0.05241666667,0.002367476467
0.0524375,0.002402614104
0.05245833333,0.002432046924
0.05247916667,0.002456591465
0.0525,0.002467303304
0.05252083333,0.00248143333
0.05254166667,0.002497202484
0.0525625,0.002523823408
0.05258333333,0.002549056197
0.05260416667,0.002575622872
0.052625,0.002602442401
0.05264583333,0.002631582087
0.05266666667,0.002667555353
0.0526875,0.002690976718
0.05270833333,0.00270893448
0.05272916667,0.00271508866
0.05275,0.002717750845
0.05277083333,0.002717251191
0.05279166667,0.002720018383
0.0528125,0.002725914354
0.05283333333,0.002734467154
0.05285416667,0.002748848405
0.052875,0.002758885967
0.05289583333,0.002769874642
0.05291666667,0.002769994317
0.0529375,0.002768766368
0.05295833333,0.002751398599
0.05297916667,0.002731457818
0.053,0.002701178659
0.05302083333,0.002671790542
0.05304166667,0.002643608022
0.0530625,0.00262094033
0.05308333333,0.002604829846
0.05310416667,0.002585258568
0.053125,0.002572881058
0.05314583333,0.002548377961
0.05316666667,0.002524031792
0.0531875,0.002486056183
0.05320833333,0.002442117315
0.05322916667,0.002394582611
0.05325,0.002356749261
0.05327083333,0.002328946488
0.05329166667,0.00229862961
0.0533125,0.002274477389
0.05333333333,0.002233766951
0.05335416667,0.002200994408
0.053375,0.002153847367
0.05339583333,0.002104518004
0.05341666667,0.002053521108
0.0534375,0.002017228166
0.05345833333,0.001995742321
0.05347916667,0.001972974744
0.0535,0.001944348332
0.05352083333,0.00190512219
0.05354166667,0.001860132907
0.0535625,0.001808075234
0.05358333333,0.001758369268
0.05360416667,0.001699824003
0.053625,0.00164543197
0.05364583333,0.001586810919
0.05366666667,0.001536244294
0.0536875,0.001497445977
0.05370833333,0.001475029392
0.05372916667,0.001465072623
0.05375,0.001444315771
0.05377083333,0.001416962128
0.05379166667,0.00136702857
0.0538125,0.001319881994
0.05383333333,0.001281280536
0.05385416667,0.001268004416
0.053875,0.001267753425
0.05389583333,0.001271551591
0.05391666667,0.001262487494
0.0539375,0.001231308095
0.05395833333,0.001199037652
0.05397916667,0.001169621013
0.054,0.001158888219
0.05402083333,0.00115194777
0.05404166667,0.001138285152
0.0540625,0.001108170021
0.05408333333,0.001081890659
0.05410416667,0.001072339597
0.054125,0.001090353704
0.05414583333,0.001129062148
0.05416666667,0.001163242618
0.0541875,0.001176671125
0.05420833333,0.001161796274
0.05422916667,0.001145762508
0.05425,0.001142020687
0.05427083333,0.001171165961
0.05429166667,0.001206476591
0.0543125,0.001232991577
0.05433333333,0.001229088171
0.05435416667,0.00122329162
0.054375,0.001222423627
0.05439583333,0.001243740669
0.05441666667,0.001275122981
0.0544375,0.001282329438
0.05445833333,0.001277117874
0.05447916667,0.00124894164
0.0545,0.001232039998
0.05452083333,0.00123409403
0.05454166667,0.00127331051
0.0545625,0.001315261703
0.05458333333,0.001335319714
0.05460416667,0.001327851205
0.054625,0.001298744814
0.05464583333,0.001283714664
0.05466666667,0.001276177121
0.0546875,0.001280475757
0.05470833333,0.001263570623
0.05472916667,0.001231424976
0.05475,0.001188490307
0.05477083333,0.001163974172
0.05479166667,0.001166896545
0.0548125,0.001191317686
0.05483333333,0.001214057906
0.05485416667,0.001214215648
0.054875,0.0011954949
0.05489583333,0.001161488122
0.05491666667,0.00114007527
0.0549375,0.001122852904
0.05495833333,0.001105681178
0.05497916667,0.001066814992
0.055,0.001012235414
0.05502083333,0.0009547634982
0.05504166667,0.0009127624216
0.0550625,0.0008916224469
0.05508333333,0.0008804028039
0.05510416667,0.000872068631
0.055125,0.0008543558652
0.05514583333,0.0008376485202
0.05516666667,0.0008160183206
0.0551875,0.0007993658073
0.05520833333,0.0007757555577
0.05522916667,0.0007416304434
0.05525,0.0006918844883
0.05527083333,0.0006362696295
0.05529166667,0.0005900556571
0.0553125,0.0005510500632
0.05533333333,0.0005104715819
0.05535416667,0.0004616493534
0.055375,0.0004125556443
0.05539583333,0.0003735137871
0.05541666667,0.0003546166699
0.0554375,0.0003461985034
0.05545833333,0.0003355600347
0.05547916667,0.0003070644743
0.0555,0.0002557369298
0.05552083333,0.0001893539738
0.05554166667,0.0001307695056
0.0555625,8.57827763e-05
0.05558333333,4.654360964e-05
0.05560416667,5.720263289e-06
0.055625,-5.044045247e-05
0.05564583333,-0.0001026927712
0.05566666667,-0.000142801262
0.0556875,-0.0001598505769
0.05570833333,-0.0001681216381
0.05572916667,-0.0001848818792
0.05575,-0.0002259387402
0.05577083333,-0.000280484528
0.05579166667,-0.0003208881244
0.0558125,-0.0003375707311
0.05583333333,-0.0003329511092
0.05585416667,-0.0003333903733
0.055875,-0.0003555961594
0.05589583333,-0.000397614087
0.05591666667,-0.0004438669421
0.0559375,-0.0004739057622
0.05595833333,-0.0004815356515
0.05597916667,-0.0004804739438
0.056,-0.0004897956969
0.05602083333,-0.0005157040432
0.05604166667,-0.0005491847405
0.0560625,-0.0005721696652
0.05608333333,-0.0005833038012
0.05610416667,-0.000589646399
0.056125,-0.0006137338933
0.05614583333,-0.0006579642068
0.05616666667,-0.0007166598807
0.0561875,-0.0007654037327
0.05620833333,-0.0007863568026
0.05622916667,-0.0007855180302
0.05625,-0.0007739416906
0.05627083333,-0.0007756134728
0.05629166667,-0.000788763864
0.0563125,-0.0008092320058
0.05633333333,-0.0008215286653
0.05635416667,-0.0008236354915
0.056375,-0.000832003192
0.05639583333,-0.0008550303755
0.05641666667,-0.0008917029481
0.0564375,-0.0009330195026
0.05645833333,-0.0009594188887
0.05647916667,-0.0009652446024
0.0565,-0.0009589013061
0.05652083333,-0.0009522767505
0.05654166667,-0.0009622325306
0.0565625,-0.0009811819764
0.05658333333,-0.0009998496389
0.05660416667,-0.00100040494
0.056625,-0.0009873507079
0.05664583333,-0.0009773487691
0.05666666667,-0.0009833403165
0.0566875,-0.001008625608
0.05670833333,-0.001036581583
0.05672916667,-0.001056580921
0.05675,-0.001058311318
0.05677083333,-0.00105695962
0.05679166667,-0.001061350806
0.0568125,-0.001077279216
0.05683333333,-0.001102147158
0.05685416667,-0.001119826338
0.056875,-0.001126095536
0.05689583333,-0.001121701556
0.05691666667,-0.001121179666
0.0569375,-0.001136720413
0.05695833333,-0.001171605894
0.05697916667,-0.00121411297
0.057,-0.001255215262
0.05702083333,-0.001286977669
0.05704166667,-0.001313503715
0.0570625,-0.001339490758
0.05708333333,-0.001364710624
0.05710416667,-0.001392663107
0.057125,-0.001413975377
0.05714583333,-0.001432363293
0.05716666667,-0.001446095528
0.0571875,-0.001466095331
0.05720833333,-0.001497429563
0.05722916667,-0.001540753292
0.05725,-0.001588169951
0.05727083333,-0.001627804944
0.05729166667,-0.001657622634
0.0573125,-0.001683861949
0.05733333333,-0.001716583152
0.05735416667,-0.001757828868
0.057375,-0.001800981816
0.05739583333,-0.001833375543
0.05741666667,-0.001860100543
0.0574375,-0.001877396833
0.05745833333,-0.001895360299
0.05747916667,-0.001918092719
0.0575,-0.001947582699
0.05752083333,-0.001979146618
0.05754166667,-0.002010197146
0.0575625,-0.002040703548
0.05758333333,-0.002077387413
0.05760416667,-0.002129306784
0.057625,-0.002182535129
0.05764583333,-0.002227895427
0.05766666667,-0.002249154262
0.0576875,-0.002258592052
0.05770833333,-0.002264905022
0.05772916667,-0.002275665291
0.05775,-0.002293588594
0.05777083333,-0.002308265539
0.05779166667,-0.002320613712
0.0578125,-0.002326959977
0.05783333333,-0.002342478372
0.05785416667,-0.002369549591
0.057875,-0.002411645837
0.05789583333,-0.002461183351
0.05791666667,-0.002502020448
0.0579375,-0.002528762212
0.05795833333,-0.002536243759
0.05797916667,-0.002536214888
0.058,-0.002536498709
0.05802083333,-0.002546046162
0.05804166667,-0.002560482826
0.0580625,-0.002573419828
0.05808333333,-0.002584651345
0.05810416667,-0.002596448641
0.058125,-0.002619872801
0.05814583333,-0.002653956879
0.05816666667,-0.002689125249
0.0581875,-0.002710264875
0.05820833333,-0.00270795403
0.05822916667,-0.002689155284
0.05825,-0.002671968658
0.05827083333,-0.002660200698
0.05829166667,-0.002658668673
0.0583125,-0.002664105268
0.05833333333,-0.002677085111
0.05835416667,-0.002694459166
0.058375,-0.002711904002
0.05839583333,-0.002724253573
0.05841666667,-0.002721027005
0.0584375,-0.002701229183
0.05845833333,-0.002667598426
0.05847916667,-0.00263643451
0.0585,-0.00261171069
0.05852083333,-0.002598671243
0.05854166667,-0.002587554045
0.0585625,-0.002574356738
0.05858333333,-0.002562252339
0.05860416667,-0.002557048108
0.058625,-0.002572157886
0.05864583333,-0.002599413274
0.05866666667,-0.002627863083
0.0586875,-0.002634967212
0.05870833333,-0.002617899794
0.05872916667,-0.002583622234
0.05875,-0.002558035776
0.05877083333,-0.002555817133
0.05879166667,-0.002567828167
0.0588125,-0.002579971449
0.05883333333,-0.002571723424
0.05885416667,-0.002552683465
0.058875,-0.002540129703
0.05889583333,-0.002555201529
0.05891666667,-0.002593033947
0.0589375,-0.002631001873
0.05895833333,-0.002650950104
0.05897916667,-0.002648539608
0.059,-0.002632329473
0.05902083333,-0.002621885389
0.05904166667,-0.002627357841
0.0590625,-0.002645469736
0.05908333333,-0.002664001193
0.05910416667,-0.002672795206
0.059125,-0.002674031071
0.05914583333,-0.002679581288
0.05916666667,-0.002704729326
0.0591875,-0.002739052521
0.05920833333,-0.002776700538
0.05922916667,-0.002794828033
0.05925,-0.002793469001
0.05927083333,-0.002773042303
0.05929166667,-0.002745664446
0.0593125,-0.002730801236
0.05933333333,-0.00272238208
0.05935416667,-0.002731173299
0.059375,-0.002746521262
0.05939583333,-0.002778374823
0.05941666667,-0.002817024942
0.0594375,-0.002854818245
0.05945833333,-0.002885899507
0.05947916667,-0.002897405531
0.0595,-0.002894813195
0.05952083333,-0.002876472659
0.05954166667,-0.002856835723
0.0595625,-0.002842562273
0.05958333333,-0.002844279166
0.05960416667,-0.002856185893
0.059625,-0.002872930374
0.05964583333,-0.002889723983
0.05966666667,-0.002910838462
0.0596875,-0.002935481025
0.05970833333,-0.002963823732
0.05972916667,-0.002992833499
0.05975,-0.003010688815
0.05977083333,-0.003011428285
0.05979166667,-0.002991258632
0.0598125,-0.002971331822
0.05983333333,-0.002959926613
0.05985416667,-0.002968115965
0.059875,-0.002986329608
0.05989583333,-0.003012159606
0.05991666667,-0.003033193061
0.0599375,-0.003048492596
0.05995833333,-0.003063532524
0.05997916667,-0.003077702131
0.06,-0.003113770857
0.06002083333,-0.003134413389
0.06004166667,-0.003147594631
0.0600625,-0.003136067186
0.06008333333,-0.003113836981
0.06010416667,-0.00308917067
0.060125,-0.003080956871
0.06014583333,-0.003100660397
0.06016666667,-0.003132637125
0.0601875,-0.003166286042
0.06020833333,-0.003171669785
0.06022916667,-0.003158015199
0.06025,-0.003131666686
0.06027083333,-0.003123994451
0.06029166667,-0.003141710302
0.0603125,-0.003177642589
0.06033333333,-0.003205252113
0.06035416667,-0.003205726855
0.060375,-0.003188553965
0.06039583333,-0.003168201074
0.06041666667,-0.003174103564
0.0604375,-0.003198481863
0.06045833333,-0.0032362903
0.06047916667,-0.003256098367
0.0605,-0.003256884869
0.06052083333,-0.003243223066
0.06054166667,-0.003237178549
0.0605625,-0.003250096925
0.06058333333,-0.003280311124
0.06060416667,-0.003322415054
0.060625,-0.003353241365
0.06064583333,-0.003376417793
0.06066666667,-0.003391620936
0.0606875,-0.003412389662
0.06070833333,-0.003441974288
0.06072916667,-0.003486225847
0.06075,-0.003531672293
0.06077083333,-0.003564791521
0.06079166667,-0.003581188852
0.0608125,-0.0035796382
0.06083333333,-0.003585454542
0.06085416667,-0.003605610458
0.060875,-0.003650113009
0.06089583333,-0.003703320399
0.06091666667,-0.003757268423
0.0609375,-0.003791594179
0.06095833333,-0.003800179809
0.06097916667,-0.003792961827
0.061,-0.003785971552
0.06102083333,-0.00379525125
0.06104166667,-0.00381224486
0.0610625,-0.003836064599
0.06108333333,-0.003850801615
0.06110416667,-0.003865930252
0.061125,-0.003883183235
0.06114583333,-0.003910539672
0.06116666667,-0.003945428412
0.0611875,-0.003976298962
0.06120833333,-0.003991622943
0.06122916667,-0.003984832671
0.06125,-0.003970822785
0.06127083333,-0.003956306726
0.06129166667,-0.003958236892
0.0613125,-0.003967726137
0.06133333333,-0.003984809853
0.06135416667,-0.003991485108
0.061375,-0.003991637845
0.06139583333,-0.003984969575
0.06141666667,-0.003977883141
0.0614375,-0.003973650746
0.06145833333,-0.00396226719
0.06147916667,-0.003950983286
0.0615,-0.003929246217
0.06152083333,-0.003917528782
0.06154166667,-0.003915898036
0.0615625,-0.003932383377
0.06158333333,-0.003945885692
0.06160416667,-0.003941661678
0.061625,-0.003922520205
0.06164583333,-0.003891112749
0.06166666667,-0.003864455968
0.0616875,-0.003839729587
0.06170833333,-0.003815335687
0.06172916667,-0.003775385441
0.06175,-0.003729197429
0.06177083333,-0.003684047144
0.06179166667,-0.003653365653
0.0618125,-0.003641109215
0.06183333333,-0.003637071
0.06185416667,-0.003629759653
0.061875,-0.003609434469
0.06189583333,-0.003576162504
0.06191666667,-0.003534677438
0.0619375,-0.00350607885
0.06195833333,-0.003490350908
0.06197916667,-0.003485889407
0.062,-0.003472413402
0.06202083333,-0.003450910095
0.06204166667,-0.003417884232
0.0620625,-0.003386939177
0.06208333333,-0.003363328287
0.06210416667,-0.003339065937
0.062125,-0.003323981538
0.06214583333,-0.003295450937
0.06216666667,-0.003267719643
0.0621875,-0.003235525219
0.06220833333,-0.003217813792
0.06222916667,-0.00320898369
0.06225,-0.003205253975
0.06227083333,-0.003204580629
0.06229166667,-0.003190820105
0.0623125,-0.003174743615
0.06233333333,-0.003148742253
0.06235416667,-0.003134057391
0.062375,-0.003119646339
0.06239583333,-0.0031102621
0.06241666667,-0.003092609113
0.0624375,-0.003076896071
0.06245833333,-0.003062152071
0.06247916667,-0.003044930287
0.0625,-0.003020824166
0.06252083333,-0.00298501784
0.06254166667,-0.002949533053
0.0625625,-0.002909066156
0.06258333333,-0.00287606474
0.06260416667,-0.002842545509
0.062625,-0.00280972803
0.06264583333,-0.002779095434
0.06266666667,-0.002758514136
0.0626875,-0.002749557607
0.06270833333,-0.002741906792
0.06272916667,-0.00272905943
0.06275,-0.002701871097
0.06277083333,-0.002672622446
0.06279166667,-0.002635383047
0.0628125,-0.002603346016
0.06283333333,-0.002558931243
0.06285416667,-0.002512273146
0.062875,-0.002455588197
0.06289583333,-0.002399185905
0.06291666667,-0.002354814904
0.0629375,-0.002320375526
0.06295833333,-0.002301570028
0.06297916667,-0.002276390558
0.063,-0.002250676276
0.06302083333,-0.002206883859
0.06304166667,-0.002167675644
0.0630625,-0.002132162452
0.06308333333,-0.002107354114
0.06310416667,-0.002079679398
0.063125,-0.002037083963
0.06314583333,-0.001984401373
0.06316666667,-0.001917504705
0.0631875,-0.001864899183
0.06320833333,-0.001825319021
0.06322916667,-0.001804846921
0.06325,-0.001779854414
0.06327083333,-0.001742740511
0.06329166667,-0.001685606549
0.0633125,-0.001628265716
0.06333333333,-0.001587995328
0.06335416667,-0.001560243545
0.063375,-0.001538298675
0.06339583333,-0.001494774711
0.06341666667,-0.001438749488
0.0634375,-0.001367416349
0.06345833333,-0.00131081813
0.06347916667,-0.001276553841
0.0635,-0.001262780977
0.06352083333,-0.00125140429
0.06354166667,-0.001224821201
0.0635625,-0.001173897996
0.06358333333,-0.001115533873
0.06360416667,-0.001075005624
0.063625,-0.001039742026
0.06364583333,-0.001011268003
0.06366666667,-0.0009573416319
0.0636875,-0.000889831339
0.06370833333,-0.0008163498132
0.06372916667,-0.0007628145395
0.06375,-0.0007373194676
0.06377083333,-0.0007245787419
0.06379166667,-0.0007111061132
0.0638125,-0.000666264561
0.06383333333,-0.0006094320561
0.06385416667,-0.0005454332568
0.063875,-0.0005094997468
0.06389583333,-0.0004844792129
0.06391666667,-0.0004614241479
0.0639375,-0.0004185007128
0.06395833333,-0.0003546892549
0.06397916667,-0.0002898676903
0.064,-0.0002359787759
0.06402083333,-0.0002096063981
0.06404166667,-0.0001872966241
0.0640625,-0.0001584368874
0.06408333333,-0.000105469102
0.06410416667,-4.622001143e-05
0.064125,9.867009794e-06
0.06414583333,4.515297042e-05
0.06416666667,6.529754319e-05
0.0641875,8.759228513e-05
0.06420833333,0.0001214414806
0.06422916667,0.0001746905036
0.06425,0.000227075463
0.06427083333,0.0002759788185
0.06429166667,0.00029964032
0.0643125,0.0003185983223
0.06433333333,0.000341750565
0.06435416667,0.0003853710077
0.064375,0.0004401437764
0.06439583333,0.0004891165881
0.06441666667,0.0005297170719
0.0644375,0.0005534543307
0.06445833333,0.0005792727461
0.06447916667,0.0006023925962
0.0645,0.0006364083383
0.06452083333,0.0006690869923
0.06454166667,0.0006969973911
0.0645625,0.0007161499816
0.06458333333,0.000735225738
0.06460416667,0.0007598664961
0.064625,0.0007944381214
0.06464583333,0.0008342254441
0.06466666667,0.000873692974
0.0646875,0.0009189805714
0.06470833333,0.0009469891666
0.06472916667,0.0009805539157
0.06475,0.001004311838
0.06477083333,0.001034871675
0.06479166667,0.001057567075
0.0648125,0.001078190631
0.06483333333,0.00110003259
0.06485416667,0.001125357347
0.064875,0.001161096501
0.06489583333,0.001198798069
0.06491666667,0.001243165927
0.0649375,0.001279610908
0.06495833333,0.001317668706
0.06497916667,0.001347190468
0.065,0.001381940558
0.06502083333,0.001415538485
0.06504166667,0.001449060743
0.0650625,0.001484586741
0.06508333333,0.001519000158
0.06510416667,0.001559671015
0.065125,0.001601715107
0.06514583333,0.001655281638
0.06516666667,0.001711505931
0.0651875,0.00176970847
0.06520833333,0.001819931087
0.06522916667,0.001866973587
0.06525,0.001913136919
0.06527083333,0.001963343238
0.06529166667,0.002021691529
0.0653125,0.002084391424
0.06533333333,0.002149480861
0.06535416667,0.002205141354
0.065375,0.002255854197
0.06539583333,0.002304344205
0.06541666667,0.0023590622
0.0654375,0.002420651028
0.06545833333,0.002493564272
0.06547916667,0.002569998614
0.0655,0.002647628309
0.06552083333,0.002721592318
0.06554166667,0.002788693644
0.0655625,0.002851147437
0.06558333333,0.002904663561
0.06560416667,0.002962296363
0.065625,0.00301453704
0.06564583333,0.003067496233
0.06566666667,0.003117836313
0.0656875,0.003165344242
0.06570833333,0.003216835205
0.06572916667,0.003271142952
0.06575,0.003331350163
0.06577083333,0.003389513586
0.06579166667,0.003439506749
0.0658125,0.003478529397
0.06583333333,0.003512372496
0.06585416667,0.003541651648
0.065875,0.003576402552
0.06589583333,0.003608874045
0.06591666667,0.003642593743
0.0659375,0.003676190972
0.06595833333,0.003705481533
0.06597916667,0.003735921811
0.066,0.003762628883
0.06602083333,0.003791505238
0.06604166667,0.003819503821
0.0660625,0.003845072119
0.06608333333,0.003865263192
0.06610416667,0.003876098664
0.066125,0.003876868868
0.06614583333,0.003872026689
0.06616666667,0.00387494429
0.0661875,0.003889893647
0.06620833333,0.003917223774
0.06622916667,0.003946057055
0.06625,0.003969752695
0.06627083333,0.003986077383
0.06629166667,0.003999026492
0.0663125,0.004008420277
0.06633333333,0.004025481176
0.06635416667,0.004050738644
0.066375,0.00407932559
0.06639583333,0.004110346548
0.06641666667,0.004131729715
0.0664375,0.004152181558
0.06645833333,0.004168433603
0.06647916667,0.004188040271
0.0665,0.004202308133
0.06652083333,0.004210806917
0.06654166667,0.004217986949
0.0665625,0.004227702506
0.06658333333,0.004253848456
0.06660416667,0.004287212156
0.066625,0.004336070269
0.06664583333,0.004384565167
0.06666666667,0.004433942027
0.0666875,0.004475480411
0.06670833333,0.004506730475
0.06672916667,0.004531386308
0.06675,0.004550807644
0.06677083333,0.004576265812
0.06679166667,0.004603067413
0.0668125,0.004631557036
0.06683333333,0.004657763988
0.06685416667,0.004681937862
0.066875,0.004704958294
0.06689583333,0.004733967129
0.06691666667,0.00476608146
0.0669375,0.004805169068
0.06695833333,0.004845628049
0.06697916667,0.004884792026
0.067,0.00492534833
0.06702083333,0.004963916261
0.06704166667,0.005008724984
0.0670625,0.005054085515
0.06708333333,0.005100941285
0.06710416667,0.005139032844
0.067125,0.005167626776
0.06714583333,0.005187083967
0.06716666667,0.00520445453
0.0671875,0.005230294075
0.06720833333,0.005264267325
0.06722916667,0.005301673431
0.06725,0.005337430164
0.06727083333,0.005372053478
0.06729166667,0.00540875271
0.0673125,0.005454364233
0.06733333333,0.00550457323
0.06735416667,0.005554936361
0.067375,0.005592622794
0.06739583333,0.005617594812
0.06741666667,0.00563631393
0.0674375,0.005655325484
0.06745833333,0.005682516843
0.06747916667,0.005708481651
0.0675,0.005731560756
0.06752083333,0.005745564587
0.06754166667,0.005761247594
0.0675625,0.00577895157
0.06758333333,0.005802195985
0.06760416667,0.005835500546
0.067625,0.005866357125
0.06764583333,0.005896567833
0.06766666667,0.005918638781
0.0676875,0.005943878088
0.06770833333,0.005970203318
0.06772916667,0.006000410765
0.06775,0.006025477313
0.06777083333,0.006038827822
0.06779166667,0.00604356546
0.0678125,0.006038755644
0.06783333333,0.00604271749
0.06785416667,0.006056278013
0.067875,0.006079681683
0.06789583333,0.006101734005
0.06791666667,0.006119980011
0.0679375,0.006138535216
0.06795833333,0.00616579596
0.06797916667,0.006200292148
0.068,0.006240332965
0.06802083333,0.006281047128
0.06804166667,0.006315198727
0.0680625,0.006340223365
0.06808333333,0.006353439763
0.06810416667,0.00637034094
0.068125,0.00639050873
0.06814583333,0.006415335927
0.06816666667,0.006437046919
0.0681875,0.006454314105
0.06820833333,0.006473554298
0.06822916667,0.006500476506
0.06825,0.0065407902
0.06827083333,0.006590848789
0.06829166667,0.006642398424
0.0683125,0.006685437169
0.06833333333,0.006721955724
0.06835416667,0.006759323645
0.068375,0.006800502073
0.06839583333,0.006844852585
0.06841666667,0.006884255912
0.0684375,0.006911986042
0.06845833333,0.006929058116
0.06847916667,0.006945699453
0.0685,0.006966515444
0.06852083333,0.006992189214
0.06854166667,0.007020029705
0.0685625,0.007045052946
0.06858333333,0.007067190018
0.06860416667,0.0070875003
0.068625,0.007109108847
0.06864583333,0.007132220082
0.06866666667,0.00715799816
0.0686875,0.007177625783
0.06870833333,0.007190426346
0.06872916667,0.007193336263
0.06875,0.007198717911
0.06877083333,0.007210529409
0.06879166667,0.00723059848
0.0688125,0.007249647286
0.06883333333,0.007260982413
0.06885416667,0.007265020628
0.068875,0.007264177315
0.06889583333,0.007268181071
0.06891666667,0.007271579932
0.0689375,0.00727820769
0.06895833333,0.007279703859
0.06897916667,0.007276317105
0.069,0.007270791568
0.06902083333,0.007266512606
0.06904166667,0.007268620189
0.0690625,0.007269598078
0.06908333333,0.007271060254
0.06910416667,0.007267476059
0.069125,0.007266868837
0.06914583333,0.007267808542
0.06916666667,0.007274755277
0.0691875,0.007281755097
0.06920833333,0.007283863612
0.06922916667,0.007282614708
0.06925,0.007273323834
0.06927083333,0.007262205705
0.06929166667,0.007243327331
0.0693125,0.007224297617
0.06933333333,0.007200144697
0.06935416667,0.007175940555
0.069375,0.007153334096
0.06939583333,0.007136045955
0.06941666667,0.007123837713
0.0694375,0.007114342414
0.06945833333,0.007108394057
0.06947916667,0.00709823193
0.0695,0.007088110317
0.06952083333,0.007070934866
0.06954166667,0.007054422982
0.0695625,0.00703494763
0.06958333333,0.007012323476
0.06960416667,0.006988481618
0.069625,0.006960744504
0.06964583333,0.006936152
0.06966666667,0.006908308715
0.0696875,0.006882784888
0.06970833333,0.006855783518
0.06972916667,0.006830347236
0.06975,0.006800084375
0.06977083333,0.006769918837
0.06979166667,0.006740044337
0.0698125,0.006713219918
0.06983333333,0.006688777357
0.06985416667,0.006661020219
0.069875,0.006631948519
0.06989583333,0.006598628592
0.06991666667,0.006570722442
0.0699375,0.006542037707
0.06995833333,0.006512708031
0.06997916667,0.006476955023
0.07,0.006438338198
0.07002083333,0.006397519261
0.07004166667,0.006353841163
0.0700625,0.006310086697
0.07008333333,0.00626465492
0.07010416667,0.006221904419
0.070125,0.006175742019
0.07014583333,0.006132733077
0.07016666667,0.006090885494
0.0701875,0.006052185316
0.07020833333,0.006016703788
0.07022916667,0.005981127732
0.07025,0.005946310237
0.07027083333,0.005906273145
0.07029166667,0.005869954359
0.0703125,0.005831465125
0.07033333333,0.005801312625
0.07035416667,0.005775625352
0.070375,0.005751420744
0.07039583333,0.00572690554
0.07041666667,0.005697747227
0.0704375,0.005669124424
0.07045833333,0.005641269032
0.07047916667,0.005618671421
0.0705,0.005592645612
0.07052083333,0.005564960185
0.07054166667,0.005530243739
0.0705625,0.005499064457
0.07058333333,0.005474067759
0.07060416667,0.005456358194
0.070625,0.00544108497
0.07064583333,0.005422343034
0.07066666667,0.005404040217
0.0706875,0.005385418888
0.07070833333,0.005371642299
0.07072916667,0.005360410549
0.07075,0.005354496185
0.07077083333,0.005342385266
0.07079166667,0.005325740203
0.0708125,0.00530356681
0.07083333333,0.005278687458
0.07085416667,0.005257937126
0.070875,0.005236897618
0.07089583333,0.005218463484
0.07091666667,0.005197766237
0.0709375,0.005180665758
0.07095833333,0.005169106182
0.07097916667,0.005165554117
0.071,0.005165909883
0.07102083333,0.005166068207
0.07104166667,0.005164681002
0.0710625,0.005158910062
0.07108333333,0.005149933975
0.07110416667,0.00513717439
0.071125,0.005125547759
0.07114583333,0.005108793266
0.07116666667,0.005090449471
0.0711875,0.00506764045
0.07120833333,0.005046667531
0.07122916667,0.005029219203
0.07125,0.005015709903
0.07127083333,0.00500540575
0.07129166667,0.004989671055
0.0713125,0.004973981995
0.07133333333,0.004953653552
0.07135416667,0.004937171005
0.071375,0.004918080289
0.07139583333,0.004898844752
0.07141666667,0.004875416867
0.0714375,0.004845518153
0.07145833333,0.004816532601
0.07147916667,0.004781725351
0.0715,0.004752717447
0.07152083333,0.004723224323
0.07154166667,0.004694341216
0.0715625,0.004662310239
0.07158333333,0.00462801801
0.07160416667,0.004599409644
0.071625,0.004574082792
0.07164583333,0.004548355006
0.07166666667,0.004520252813
0.0716875,0.004489290528
0.07170833333,0.004456725903
0.07172916667,0.004428056069
0.07175,0.004398882389
0.07177083333,0.004373435397
0.07179166667,0.004341707565
0.0718125,0.004307560623
0.07183333333,0.004271488637
0.07185416667,0.004237899557
0.071875,0.004208828323
0.07189583333,0.004179459065
0.07191666667,0.00415147515
0.0719375,0.004117141478
0.07195833333,0.004085999914
0.07197916667,0.00405663671
0.072,0.004031709861
0.07202083333,0.004005958792
0.07204166667,0.003977810033
0.0720625,0.003947846591
0.07208333333,0.003917962778
0.07210416667,0.003890794469
0.072125,0.003864341648
0.07214583333,0.003839188488
0.07216666667,0.003810025053
0.0721875,0.003783594351
0.07220833333,0.003753647208
0.07222916667,0.003725972492
0.07225,0.003698375542
0.07227083333,0.003674858948
0.07229166667,0.00365466252
0.0723125,0.003631261876
0.07233333333,0.00360847218
0.07235416667,0.003582433332
0.072375,0.003561624093
0.07239583333,0.003542330815
0.07241666667,0.003524400527
0.0724375,0.003503374755
0.07245833333,0.003478981322
0.07247916667,0.003455239115
0.0725,0.003434854792
0.07252083333,0.003416774329
0.07254166667,0.003395011649
0.0725625,0.003375957487
0.07258333333,0.003349983133
0.07260416667,0.003327004611
0.072625,0.003302358324
0.07264583333,0.003282326274
0.07266666667,0.003261074657
0.0726875,0.003234265838
0.07270833333,0.003202436026
0.07272916667,0.003165338421
0.07275,0.003131263424
0.07277083333,0.003099414287
0.07279166667,0.003071534447
0.0728125,0.003039986361
0.07283333333,0.003008829895
0.07285416667,0.002974793082
0.072875,0.002944848733
0.07289583333,0.002917853417
0.07291666667,0.002891548909
0.0729375,0.002862579888
0.07295833333,0.002824457362
0.07297916667,0.002783641918
0.073,0.002737290226
0.07302083333,0.002696187701
0.07304166667,0.002653500764
0.0730625,0.002610752825
0.07308333333,0.002561557805
0.07310416667,0.002511376981
0.073125,0.002464103047
0.07314583333,0.002419893164
0.07316666667,0.002384678228
0.0731875,0.002349801827
0.07320833333,0.002317965729
0.07322916667,0.002279936802
0.07325,0.002244308125
0.07327083333,0.002206899226
0.07329166667,0.002172076609
0.0733125,0.002137008589
0.07333333333,0.002098105149
0.07335416667,0.002053861972
0.073375,0.002004974522
0.07339583333,0.001960449386
0.07341666667,0.001919500646
0.0734375,0.001887016348
0.07345833333,0.001850055647
0.07347916667,0.001811453025
0.0735,0.001769170165
0.07352083333,0.001735023106
0.07354166667,0.001711308956
0.0735625,0.001690384583
0.07358333333,0.001673152903
0.07360416667,0.00164688786
0.073625,0.001621079748
0.07364583333,0.001593589084
0.07366666667,0.001571132801
0.0736875,0.001548172208
0.07370833333,0.001522766077
0.07372916667,0.001491587143
0.07375,0.001458482351
0.07377083333,0.001426346134
0.07379166667,0.001399653614
0.0738125,0.001379544148
0.07383333333,0.001359804184
0.07385416667,0.001342020114
0.073875,0.001320017735
0.07389583333,0.001303162077
0.07391666667,0.001288885484
0.0739375,0.0012767812
0.07395833333,0.001262797741
0.07397916667,0.001244939282
0.074,0.001225372311
0.07402083333,0.00120037864
0.07404166667,0.001174965641
0.0740625,0.001146319089
0.07408333333,0.001121974667
0.07410416667,0.001094830921
0.074125,0.001069848659
0.07414583333,0.001043713186
0.07416666667,0.001020835363
0.0741875,0.001002635574
0.07420833333,0.0009856985416
0.07422916667,0.0009701843956
0.07425,0.0009521361208
0.07427083333,0.0009381943382
0.07429166667,0.0009249557625
0.0743125,0.0009149947437
0.07433333333,0.0008997531841
0.07435416667,0.0008834409527
0.074375,0.0008607712807
0.07439583333,0.0008393531316
0.07441666667,0.000819298788
0.0744375,0.0008005780983
0.07445833333,0.000784550386
0.07447916667,0.0007635226939
0.0745,0.0007452675491
0.07452083333,0.000727030274
0.07454166667,0.0007205155562
0.0745625,0.0007164615672
0.07458333333,0.0007074987516
0.07460416667,0.0006944218767
0.074625,0.0006747743464
0.07464583333,0.0006574457511
0.07466666667,0.0006372101489
0.0746875,0.0006192881265
0.07470833333,0.0005942010903
0.07472916667,0.0005651563406
0.07475,0.0005291998386
0.07477083333,0.0004965442931
0.07479166667,0.0004636359809
0.0748125,0.0004360801249
0.07483333333,0.0004071771109
0.07485416667,0.0003764457069
0.074875,0.0003439541324
0.07489583333,0.0003102938645
0.07491666667,0.0002820656227
0.0749375,0.0002501580457
0.07495833333,0.0002184121695
0.07497916667,0.0001793788397
0.075,0.0001380590111
0.07502083333,9.461916488e-05
0.07504166667,5.138227425e-05
0.0750625,6.832336112e-06
0.07508333333,-3.950700557e-05
0.07510416667,-8.754106966e-05
0.075125,-0.0001399320172
0.07514583333,-0.0001887091639
0.07516666667,-0.0002368529822
0.0751875,-0.0002803035313
0.07520833333,-0.0003261349048
0.07522916667,-0.0003742175177
0.07525,-0.0004246865283
0.07527083333,-0.0004759831063
0.07529166667,-0.0005237942096
0.0753125,-0.0005721095949
0.07533333333,-0.0006191849243
0.07535416667,-0.0006683587562
0.075375,-0.0007200329565
0.07539583333,-0.0007736416883
0.07541666667,-0.0008262036717
0.0754375,-0.0008752148715
0.07545833333,-0.0009212931036
0.07547916667,-0.0009659019415
0.0755,-0.001011810615
0.07552083333,-0.001060044975
0.07554166667,-0.001106030541
0.0755625,-0.001148300944
0.07558333333,-0.001187359332
0.07560416667,-0.001223321655
0.075625,-0.001262449776
0.07564583333,-0.001301427139
0.07566666667,-0.00133770227
0.0756875,-0.001369417645
0.07570833333,-0.001396471751
0.07572916667,-0.001423723414
0.07575,-0.001448379713
0.07577083333,-0.001474992838
0.07579166667,-0.001498237252
0.0758125,-0.001517486991
0.07583333333,-0.001534729148
0.07585416667,-0.001551889582
0.075875,-0.001571711153
0.07589583333,-0.001591449603
0.07591666667,-0.001612098073
0.0759375,-0.001629245118
0.07595833333,-0.001646448625
0.07597916667,-0.001663241303
0.076,-0.001682408853
0.07602083333,-0.001701102708
0.07604166667,-0.001718006213
0.0760625,-0.001732880482
0.07608333333,-0.001746614231
0.07610416667,-0.001759970561
0.076125,-0.001773755066
0.07614583333,-0.001785417902
0.07616666667,-0.001796745695
0.0761875,-0.001808557776
0.07620833333,-0.001821473008
0.07622916667,-0.001837307587
0.07625,-0.001854673494
0.07627083333,-0.001874326612
0.07629166667,-0.001895797905
0.0763125,-0.001917116577
0.07633333333,-0.001938392175
0.07635416667,-0.001958124572
0.076375,-0.001981033245
0.07639583333,-0.002003825502
0.07641666667,-0.002027728362
0.0764375,-0.002047283808
0.07645833333,-0.002064955654
0.07647916667,-0.002082218882
0.0765,-0.002098330529
0.07652083333,-0.002118979581
0.07654166667,-0.002139529912
0.0765625,-0.002163412748
0.07658333333,-0.002187657636
0.07660416667,-0.00221424317
0.076625,-0.002243764466
0.07664583333,-0.002276259707
0.07666666667,-0.002313459758
0.0766875,-0.002353053074
0.07670833333,-0.002392530208
0.07672916667,-0.002428301843
0.07675,-0.002465049969
0.07677083333,-0.002500307048
0.07679166667,-0.002537525492
0.0768125,-0.002572380239
0.07683333333,-0.002606703434
0.07685416667,-0.002639201237
0.076875,-0.002670134651
0.07689583333,-0.002704287414
0.07691666667,-0.002739995252
0.0769375,-0.002779766219
0.07695833333,-0.00281845266
0.07697916667,-0.002858637134
0.077,-0.002898671897
0.07702083333,-0.002941752784
0.07704166667,-0.002985314233
0.0770625,-0.003030166263
0.07708333333,-0.003072012449
0.07710416667,-0.003110203426
0.077125,-0.003146544099
0.07714583333,-0.003179358784
0.07716666667,-0.003213430289
0.0771875,-0.003244933672
0.07720833333,-0.003274531104
0.07722916667,-0.003300935728
0.07725,-0.003324517282
0.07727083333,-0.003347253194
0.07729166667,-0.003370492952
0.0773125,-0.003394990694
0.07733333333,-0.003418228123
0.07735416667,-0.003438711166
0.077375,-0.003453340149
0.07739583333,-0.003467683448
0.07741666667,-0.003480121028
0.0774375,-0.003491350217
0.07745833333,-0.003499600571
0.07747916667,-0.003501957282
0.0775,-0.003500433872
0.07752083333,-0.003496938385
0.07754166667,-0.003494598903
0.0775625,-0.003491780022
0.07758333333,-0.003485652152
0.07760416667,-0.003477758495
0.077625,-0.003468051786
0.07764583333,-0.003457933897
0.07766666667,-0.003450680524
0.0776875,-0.00344435079
0.07770833333,-0.003438661341
0.07772916667,-0.003432606347
0.07775,-0.0034233185
0.07777083333,-0.003415207146
0.07779166667,-0.003405535826
0.0778125,-0.003400217509
0.07783333333,-0.003393992782
0.07785416667,-0.003387868172
0.077875,-0.003382678609
0.07789583333,-0.003377869027
0.07791666667,-0.003375302767
0.0779375,-0.003369826358
0.07795833333,-0.003364711069
0.07797916667,-0.003358300542
0.078,-0.003352146596
0.07802083333,-0.003346381942
0.07804166667,-0.003340452909
0.0780625,-0.003334811656
0.07808333333,-0.003325500991
0.07810416667,-0.003313950496
0.078125,-0.003299904289
0.07814583333,-0.003286593361
0.07816666667,-0.003273357404
0.0781875,-0.00326182507
0.07820833333,-0.003247336717
0.07822916667,-0.003231678158
0.07825,-0.003213393968
0.07827083333,-0.003195734462
0.07829166667,-0.003178186947
0.0783125,-0.003158187494
0.07833333333,-0.003139663022
0.07835416667,-0.003118590452
0.078375,-0.003099669935
0.07839583333,-0.003078739159
0.07841666667,-0.003059667768
0.0784375,-0.00304107531
0.07845833333,-0.003022960387
0.07847916667,-0.003006134648
0.0785,-0.002988579217
0.07852083333,-0.00297490065
0.07854166667,-0.002964019077
0.0785625,-0.002955369884
0.07858333333,-0.002948170528
0.07860416667,-0.002940696431
0.078625,-0.00293097808
0.07864583333,-0.002921805019
0.07866666667,-0.002914605662
0.0786875,-0.002909738105
0.07870833333,-0.002905000234
0.07872916667,-0.002898352686
0.07875,-0.002892119111
0.07877083333,-0.002883004723
0.07879166667,-0.002876766492
0.0788125,-0.002870169468
0.07883333333,-0.002865902614
0.07885416667,-0.002860737033
0.078875,-0.002855169587
0.07889583333,-0.002849521814
0.07891666667,-0.002844740869
0.0789375,-0.00284168683
0.07895833333,-0.002837152453
0.07897916667,-0.002832025057
0.079,-0.002824336756
0.07902083333,-0.002817452885
0.07904166667,-0.002809179248
0.0790625,-0.002802055329
0.07908333333,-0.002795190318
0.07910416667,-0.002788992366
0.079125,-0.002782137133
0.07914583333,-0.002774004359
0.07916666667,-0.00276809535
0.0791875,-0.002762943739
0.07920833333,-0.002761499491
0.07922916667,-0.002758799819
0.07925,-0.002756734146
0.07927083333,-0.002753284294
0.07929166667,-0.002752087777
0.0793125,-0.002751861699
0.07933333333,-0.002751509426
0.07935416667,-0.002751266584
0.079375,-0.002747801133
0.07939583333,-0.002745300531
0.07941666667,-0.002741552889
0.0794375,-0.002743196208
0.07945833333,-0.002742175013
0.07947916667,-0.0027446514
0.0795,-0.002746028593
0.07952083333,-0.002747351537
0.07954166667,-0.002747088671
0.0795625,-0.002746738493
0.07958333333,-0.002750110812
0.07960416667,-0.002753940411
0.079625,-0.002756282687
0.07964583333,-0.002756606089
0.07966666667,-0.002756974893
0.0796875,-0.00275499071
0.07970833333,-0.002753229113
0.07972916667,-0.002750795102
0.07975,-0.002745010192
0.07977083333,-0.002739884658
0.07979166667,-0.002733782399
0.0798125,-0.002730476204
0.07983333333,-0.002726807492
0.07985416667,-0.002725437749
0.079875,-0.002720483812
0.07989583333,-0.002714530332
0.07991666667,-0.002706577769
0.0799375,-0.002700036857
0.07995833333,-0.00269554765
0.07997916667,-0.002690243302
0.08,-0.002673963318
0.08002083333,-0.002661947161
0.08004166667,-0.002650595503
0.0800625,-0.002637494355
0.08008333333,-0.002627208363
0.08010416667,-0.002614692086
0.080125,-0.002601512009
0.08014583333,-0.00258805952
0.08016666667,-0.002574816579
0.0801875,-0.002565845614
0.08020833333,-0.002555192681
0.08022916667,-0.002547122538
0.08025,-0.002534518484
0.08027083333,-0.002523961244
0.08029166667,-0.002510061255
0.0803125,-0.002500237664
0.08033333333,-0.002488773083
0.08035416667,-0.002478518989
0.080375,-0.002467822982
0.08039583333,-0.002453265246
0.08041666667,-0.002440130571
0.0804375,-0.002426865976
0.08045833333,-0.002418831922
0.08047916667,-0.002410243731
0.0805,-0.002403710736
0.08052083333,-0.002395077376
0.08054166667,-0.002388841938
0.0805625,-0.002383903833
0.08058333333,-0.002381460276
0.08060416667,-0.002379589481
0.080625,-0.002376090968
0.08064583333,-0.002373507945
0.08066666667,-0.00237023877
0.0806875,-0.002367918147
0.08070833333,-0.002362699946
0.08072916667,-0.002358784899
0.08075,-0.00234956597
0.08077083333,-0.002342353109
0.08079166667,-0.002336072037
0.0808125,-0.00233063777
0.08083333333,-0.002327152295
0.08085416667,-0.00231626234
0.080875,-0.002308420604
0.08089583333,-0.002299248241
0.08091666667,-0.00229336624
0.0809375,-0.002285604132
0.08095833333,-0.00227637589
0.08097916667,-0.002266707364
0.081,-0.00225797249
0.08102083333,-0.002250954509
0.08104166667,-0.002239952097
0.0810625,-0.002228281694
0.08108333333,-0.002213036874
0.08110416667,-0.002199513372
0.081125,-0.002184848068
0.08114583333,-0.002173619112
0.08116666667,-0.00215873518
0.0811875,-0.002143052174
0.08120833333,-0.002129234374
0.08122916667,-0.002115008421
0.08125,-0.002102813451
0.08127083333,-0.002086677821
0.08129166667,-0.00207639439
0.0813125,-0.002066045301
0.08133333333,-0.002058082493
0.08135416667,-0.002045715228
0.081375,-0.002030132571
0.08139583333,-0.002015605802
0.08141666667,-0.002001871588
0.0814375,-0.001986284507
0.08145833333,-0.001968297875
0.08147916667,-0.001948361751
0.0815,-0.001925918856
0.08152083333,-0.001905896817
0.08154166667,-0.001883841702
0.0815625,-0.001862263889
0.08158333333,-0.001837147865
0.08160416667,-0.001814157702
0.081625,-0.00179244217
0.08164583333,-0.001770393807
0.08166666667,-0.00174998783
0.0816875,-0.001725275186
0.08170833333,-0.001703530434
0.08172916667,-0.001678033499
0.08175,-0.001655694796
0.08177083333,-0.001629655482
0.08179166667,-0.001601952361
0.0818125,-0.001573512447
0.08183333333,-0.001545604784
0.08185416667,-0.00151791703
0.081875,-0.001490643714
0.08189583333,-0.001461976208
0.08191666667,-0.00143372966
0.0819375,-0.001409205142
0.08195833333,-0.001384716597
0.08197916667,-0.00136200618
0.082,-0.001338479109
0.08202083333,-0.001316915033
0.08204166667,-0.001294040121
0.0820625,-0.001272967085
0.08208333333,-0.001252165879
0.08210416667,-0.001231213682
0.082125,-0.001211410738
0.08214583333,-0.001186749665
0.08216666667,-0.00116403983
0.0821875,-0.00113752007
0.08220833333,-0.001117546344
0.08222916667,-0.001093597268
0.08225,-0.001075142645
0.08227083333,-0.001054951223
0.08229166667,-0.001033890992
0.0823125,-0.001015919261
0.08233333333,-0.0009954327252
0.08235416667,-0.0009815129451
0.082375,-0.0009624739178
0.08239583333,-0.0009451894439
0.08241666667,-0.0009262944222
0.0824375,-0.0009086533682
0.08245833333,-0.00089093938
0.08247916667,-0.0008731284179
0.0825,-0.0008556924877
0.08252083333,-0.0008370705764
0.08254166667,-0.0008215286653
0.0825625,-0.0008023824194
0.08258333333,-0.0007845409564
0.08260416667,-0.0007651427295
0.082625,-0.0007499663625
0.08264583333,-0.0007354445406
0.08266666667,-0.0007245403831
0.0826875,-0.0007091444568
0.08270833333,-0.0006970059476
0.08272916667,-0.0006884577451
0.08275,-0.0006711810711
0.08277083333,-0.0006627979456
0.08279166667,-0.0006465289625
0.0828125,-0.0006385123706
0.08283333333,-0.0006297699292
0.08285416667,-0.0006227219128
0.082875,-0.0006143602659
0.08289583333,-0.0006066040369
0.08291666667,-0.0006030120421
0.0829375,-0.0005968163605
0.08295833333,-0.0005927974125
0.08297916667,-0.0005854266929
0.083,-0.0005871696048
0.08302083333,-0.0005825636908
0.08304166667,-0.0005852649338
0.0830625,-0.0005829770234
0.08308333333,-0.0005821948289
0.08310416667,-0.0005814016913
0.083125,-0.000577544386
0.08314583333,-0.0005812335294
0.08316666667,-0.0005793897435
0.0831875,-0.0005847170833
0.08320833333,-0.0005805025576
0.08322916667,-0.0005828667781
0.08325,-0.0005808235728
0.08327083333,-0.0005855413037
0.08329166667,-0.0005873957416
0.0833125,-0.0005879098899
0.08333333333,-0.0005891828332
0.08335416667,-0.0005869153538
0.083375,-0.0005925858859
0.08339583333,-0.0005915081128
0.08341666667,-0.0005931142368
0.0834375,-0.0005900754477
0.08345833333,-0.0005890683387
0.08347916667,-0.0005889483728
0.0835,-0.0005840783124
0.08352083333,-0.0005851199967
0.08354166667,-0.0005805360852
0.0835625,-0.0005826381966
0.08358333333,-0.0005757663748
0.08360416667,-0.0005703514908
0.083625,-0.0005698635941
0.08364583333,-0.0005680538015
0.08366666667,-0.0005662712501
0.0836875,-0.0005664929631
0.08370833333,-0.0005644660559
0.08372916667,-0.0005609024665
0.08375,-0.0005577288102
0.08377083333,-0.0005500757834
0.08379166667,-0.0005486961454
0.0838125,-0.0005409469013
0.08383333333,-0.0005406005075
0.08385416667,-0.0005312730209
0.083875,-0.0005301492056
0.08389583333,-0.0005257806624
0.08391666667,-0.0005225487403
0.0839375,-0.0005234727869
0.08395833333,-0.0005169390934
0.08397916667,-0.0005175997503
0.084,-0.0005110725178
0.08402083333,-0.0005128358025
0.08404166667,-0.0005080775591
0.0840625,-0.0005072587519
0.08408333333,-0.0004998237127
0.08410416667,-0.0004928704002
0.084125,-0.0004874853475
0.08414583333,-0.000477110123
0.08416666667,-0.0004760559241
0.0841875,-0.0004630248586
0.08420833333,-0.0004573833721
0.08422916667,-0.0004407424422
0.08425,-0.0004321393499
0.08427083333,-0.0004204307916
0.08429166667,-0.000409929984
0.0843125,-0.0003982958151
0.08433333333,-0.0003838665725
0.08435416667,-0.0003709129232
0.084375,-0.0003523324558
0.08439583333,-0.0003387240286
0.08441666667,-0.0003186001559
0.0844375,-0.0003055941488
0.08445833333,-0.0002869363816
0.08447916667,-0.0002725297527
0.0845,-0.0002535485837
0.08452083333,-0.0002356996993
0.08454166667,-0.0002204347693
0.0845625,-0.0002029935276
0.08458333333,-0.0001878371258
0.08460416667,-0.0001685671014
0.084625,-0.0001533903705
0.08464583333,-0.0001321405289
0.08466666667,-0.0001165423382
0.0846875,-0.0001015635571
0.08470833333,-8.664815687e-05
0.08472916667,-7.088296843e-05
0.08475,-5.386443081e-05
0.08477083333,-3.722389738e-05
0.08479166667,-1.839133074e-05
0.0848125,-3.630523224e-06
0.08483333333,1.587159022e-05
0.08485416667,2.951610441e-05
0.084875,4.844446084e-05
0.08489583333,6.331008626e-05
0.08491666667,8.225454803e-05
0.0849375,9.791351476e-05
0.08495833333,0.000114992341
0.08497916667,0.0001331477251
0.085,0.0001467436814
0.08502083333,0.0001690748613
0.08504166667,0.0001809398091
0.0850625,0.0002007287985
0.08508333333,0.0002135484392
0.08510416667,0.0002312814177
0.085125,0.0002484701981
0.08514583333,0.0002661917242
0.08516666667,0.0002871203178
0.0851875,0.0003042367753
0.08520833333,0.0003227299312
0.08522916667,0.0003395165259
0.08525,0.0003597566683
0.08527083333,0.0003786790185
0.08529166667,0.0003971730766
0.0853125,0.0004130836751
0.08533333333,0.0004284660972
0.08535416667,0.0004450072884
0.085375,0.0004633113567
0.08539583333,0.0004805108183
0.08541666667,0.0004961890518
0.0854375,0.0005124836462
0.08545833333,0.0005303559592
0.08547916667,0.0005453833728
0.0855,0.00056007487
0.08552083333,0.0005772720324
0.08554166667,0.0005908571184
0.0855625,0.0006061061285
0.08558333333,0.0006192483706
0.08560416667,0.0006350203766
0.085625,0.0006501223543
0.08564583333,0.0006617588224
0.08566666667,0.0006749077584
0.0856875,0.0006833181833
0.08570833333,0.0006960408064
0.08572916667,0.0007038387121
0.08575,0.0007162357215
0.08577083333,0.0007271174691
0.08579166667,0.0007385073695
0.0858125,0.0007528425776
0.08583333333,0.0007616046933
0.08585416667,0.0007732846425
0.085875,0.0007818918093
0.08589583333,0.0007968359278
0.08591666667,0.0008039591485
0.0859375,0.0008161062724
0.08595833333,0.0008232239634
0.08597916667,0.0008347821422
0.086,0.0008426449494
0.08602083333,0.0008475606446
0.08604166667,0.000852064637
0.0860625,0.0008554164087
0.08608333333,0.0008626279887
0.08610416667,0.0008651355165
0.086125,0.0008718749741
0.08614583333,0.0008789706044
0.08616666667,0.0008879355155
0.0861875,0.0008940640837
0.08620833333,0.0009002106963
0.08622916667,0.0009057065472
0.08625,0.0009147720411
0.08627083333,0.0009242973756
0.08629166667,0.0009302775725
0.0863125,0.0009383138968
0.08633333333,0.0009428147459
0.08635416667,0.0009505336639
0.086375,0.0009573970456
0.08639583333,0.0009653628804
0.08641666667,0.0009712877218
0.0864375,0.0009770032484
0.08645833333,0.0009852948133
0.08647916667,0.000991717563
0.0865,0.0009992064442
0.08652083333,0.00100712222
0.08654166667,0.001015428337
0.0865625,0.001024032827
0.08658333333,0.001030051964
0.08660416667,0.001036929199
0.086625,0.001044344157
0.08664583333,0.001052734675
0.08666666667,0.001058733556
0.0866875,0.001067020581
0.08670833333,0.001072195359
0.08672916667,0.001080331858
0.08675,0.001086967532
0.08677083333,0.00109562662
0.08679166667,0.001100175665
0.0868125,0.00110540865
0.08683333333,0.001110885059
0.08685416667,0.001115431078
0.086875,0.001121766749
0.08689583333,0.001128158416
0.08691666667,0.00113440142
0.0869375,0.001136409934
0.08695833333,0.001143961679
0.08697916667,0.001148474636
0.087,0.001156853978
0.08702083333,0.001162174041
0.08704166667,0.001166102011
0.0870625,0.001173072145
0.08708333333,0.001177186728
0.08710416667,0.001183796907
0.087125,0.001185112516
0.08714583333,0.001187725808
0.08716666667,0.001192197786
0.0871875,0.001196152065
0.08720833333,0.001199869206
0.08722916667,0.001203756197
0.08725,0.001206014073
0.08727083333,0.001211416209
0.08729166667,0.001213872456
0.0873125,0.001216038479
0.08733333333,0.001221413957
0.08735416667,0.001224341104
0.087375,0.00123177981
0.08739583333,0.001231227536
0.08741666667,0.001232610783
0.0874375,0.001235720702
0.08745833333,0.001238913625
0.08747916667,0.001240876969
0.0875,0.00124127185
0.08752083333,0.001244187471
0.08754166667,0.001245871419
0.0875625,0.001249919878
0.08758333333,0.001246721251
0.08760416667,0.001246314496
0.087625,0.001243318198
0.08764583333,0.001245046849
0.08766666667,0.001243659062
0.0876875,0.001240287442
0.08770833333,0.001239278587
0.08772916667,0.001238408731
0.08775,0.001238405472
0.08777083333,0.001233732444
0.08779166667,0.001233857591
0.0878125,0.001229620073
0.08783333333,0.001231074799
