time,data
0,1.354131118e-08
2.083333333e-05,2.197133142e-08
4.166666667e-05,2.99290015e-08
6.25e-05,3.733940446e-08
8.333333333e-05,4.475562321e-08
0.0001041666667,5.252466195e-08
0.000125,6.078201409e-08
0.0001458333333,6.93375668e-08
0.0001666666667,7.768409915e-08
0.0001875,8.57916973e-08
0.0002083333333,9.368184806e-08
0.0002291666667,1.019866644e-07
0.00025,1.110036436e-07
0.0002708333333,1.208403972e-07
0.0002916666667,1.312114364e-07
0.0003125,1.415250637e-07
0.0003333333333,1.516673365e-07
0.0003541666667,1.61473622e-07
0.000375,1.714080184e-07
0.0003958333333,1.815464401e-07
0.0004166666667,1.91871024e-07
0.0004375,2.0206177e-07
0.0004583333333,2.115379942e-07
0.0004791666667,2.202422706e-07
0.0005,2.280100517e-07
0.0005208333333,2.353737472e-07
0.0005416666667,2.425152275e-07
0.0005625,2.496827562e-07
0.0005833333333,2.56778776e-07
0.0006041666667,2.634086513e-07
0.000625,2.694571037e-07
0.0006458333333,2.74587137e-07
0.0006666666667,2.791664429e-07
0.0006875,2.832517509e-07
0.0007083333333,2.871459515e-07
0.0007291666667,2.906562884e-07
0.00075,2.931918459e-07
0.0007708333333,2.943031632e-07
0.0007916666667,2.932939935e-07
0.0008125,2.905921122e-07
0.0008333333333,2.864489659e-07
0.0008541666667,2.816895517e-07
0.000875,2.7642605e-07
0.0008958333333,2.701652591e-07
0.0009166666667,2.62449646e-07
0.0009375,2.525917751e-07
0.0009583333333,2.41333197e-07
0.0009791666667,2.293644457e-07
0.001,2.177506389e-07
0.001020833333,2.06544442e-07
0.001041666667,1.947019257e-07
0.0010625,1.812079091e-07
0.001083333333,1.650136028e-07
0.001104166667,1.468461761e-07
0.001125,1.275809183e-07
0.001145833333,1.083705996e-07
0.001166666667,8.904071791e-08
0.0011875,6.841663946e-08
0.001208333333,4.534464537e-08
0.001229166667,1.930463434e-08
0.00125,-8.34916758e-09
0.001270833333,-3.60732173e-08
0.001291666667,-6.232868799e-08
0.0013125,-8.739115032e-08
0.001333333333,-1.125251785e-07
0.001354166667,-1.38942454e-07
0.001375,-1.671655525e-07
0.001395833333,-1.956953639e-07
0.001416666667,-2.234242658e-07
0.0014375,-2.492213866e-07
0.001458333333,-2.740635239e-07
0.001479166667,-2.995536477e-07
0.0015,-3.269181548e-07
0.001520833333,-3.56492933e-07
0.001541666667,-3.865963834e-07
0.0015625,-4.159348634e-07
0.001583333333,-4.433232732e-07
0.001604166667,-4.692399216e-07
0.001625,-4.947478374e-07
0.001645833333,-5.203702358e-07
0.001666666667,-5.460624379e-07
0.0016875,-5.701945724e-07
0.001708333333,-5.918033139e-07
0.001729166667,-6.099525081e-07
0.00175,-6.254416007e-07
0.001770833333,-6.392793921e-07
0.001791666667,-6.525642675e-07
0.0018125,-6.657870131e-07
0.001833333333,-6.782132687e-07
0.001854166667,-6.893767477e-07
0.001875,-6.982496075e-07
0.001895833333,-7.051065722e-07
0.001916666667,-7.10401082e-07
0.0019375,-7.147730798e-07
0.001958333333,-7.188646123e-07
0.001979166667,-7.215973596e-07
0.002,-7.222047884e-07
0.002020833333,-7.186812354e-07
0.002041666667,-7.106576732e-07
0.0020625,-6.985268328e-07
0.002083333333,-6.836528428e-07
0.002104166667,-6.677585702e-07
0.002125,-6.507672765e-07
0.002145833333,-6.320272519e-07
0.002166666667,-6.097774872e-07
0.0021875,-5.834791637e-07
0.002208333333,-5.543920452e-07
0.002229166667,-5.245844363e-07
0.00225,-4.963524134e-07
0.002270833333,-4.692907112e-07
0.002291666667,-4.415794024e-07
0.0023125,-4.101329978e-07
0.002333333333,-3.737256975e-07
0.002354166667,-3.332964127e-07
0.002375,-2.915036816e-07
0.002395833333,-2.503963117e-07
0.002416666667,-2.095472098e-07
0.0024375,-1.66566636e-07
0.002458333333,-1.186025074e-07
0.002479166667,-6.529523233e-08
0.0025,-9.04674291e-09
0.002520833333,4.635219852e-08
0.002541666667,9.802712952e-08
0.0025625,1.467053323e-07
0.002583333333,1.946811352e-07
0.002604166667,2.451490957e-07
0.002625,2.982177989e-07
0.002645833333,3.518170502e-07
0.002666666667,4.028603371e-07
0.0026875,4.49784352e-07
0.002708333333,4.942974101e-07
0.002729166667,5.395316975e-07
0.00275,5.882667438e-07
0.002770833333,6.406449984e-07
0.002791666667,6.939655464e-07
0.0028125,7.453588182e-07
0.002833333333,7.92681135e-07
0.002854166667,8.369387956e-07
0.002875,8.796844213e-07
0.002895833333,9.22535321e-07
0.002916666667,9.648028936e-07
0.0029375,1.004309411e-06
0.002958333333,1.038702408e-06
0.002979166667,1.066792834e-06
0.003,1.089522584e-06
0.003020833333,1.108950869e-06
0.003041666667,1.127058681e-06
0.0030625,1.144888984e-06
0.003083333333,1.161634714e-06
0.003104166667,1.176259275e-06
0.003125,1.187113639e-06
0.003145833333,1.194325932e-06
0.003166666667,1.198337714e-06
0.0031875,1.200837346e-06
0.003208333333,1.202440785e-06
0.003229166667,1.202499675e-06
0.00325,1.198878522e-06
0.003270833333,1.188579063e-06
0.003291666667,1.170264795e-06
0.0033125,1.144487101e-06
0.003333333333,1.113915687e-06
0.003354166667,1.081707524e-06
0.003375,1.048243575e-06
0.003395833333,1.012649932e-06
0.003416666667,9.713066902e-07
0.0034375,9.23572486e-07
0.003458333333,8.707406778e-07
0.003479166667,8.171774084e-07
0.0035,7.666612305e-07
0.003520833333,7.19145703e-07
0.003541666667,6.713362382e-07
0.0035625,6.178461263e-07
0.003583333333,5.560657428e-07
0.003604166667,4.877275046e-07
0.003625,4.171226919e-07
0.003645833333,3.485003788e-07
0.003666666667,2.80902043e-07
0.0036875,2.107316988e-07
0.003708333333,1.32540336e-07
0.003729166667,4.59196734e-08
0.00375,-4.554510724e-08
0.003770833333,-1.348155934e-07
0.003791666667,-2.173508733e-07
0.0038125,-2.937499062e-07
0.003833333333,-3.684033629e-07
0.003854166667,-4.465638881e-07
0.003875,-5.287251952e-07
0.003895833333,-6.113542668e-07
0.003916666667,-6.892316833e-07
0.0039375,-7.59438251e-07
0.003958333333,-8.253060173e-07
0.003979166667,-8.914630598e-07
0.004,-9.637215044e-07
0.004020833333,-1.041189989e-06
0.004041666667,-1.120440061e-06
0.0040625,-1.195530331e-06
0.004083333333,-1.263595436e-06
0.004104166667,-1.325974154e-06
0.004125,-1.38562109e-06
0.004145833333,-1.445448788e-06
0.004166666667,-1.504138709e-06
0.0041875,-1.558125518e-06
0.004208333333,-1.603298074e-06
0.004229166667,-1.637524974e-06
0.00425,-1.663120543e-06
0.004270833333,-1.682858624e-06
0.004291666667,-1.701535552e-06
0.0043125,-1.719178044e-06
0.004333333333,-1.735911155e-06
0.004354166667,-1.74815159e-06
0.004375,-1.754467007e-06
0.004395833333,-1.754592631e-06
0.004416666667,-1.749857915e-06
0.0044375,-1.743645498e-06
0.004458333333,-1.736096237e-06
0.004479166667,-1.726690357e-06
0.0045,-1.71089755e-06
0.004520833333,-1.684110316e-06
0.004541666667,-1.645001703e-06
0.0045625,-1.59376259e-06
0.004583333333,-1.537010007e-06
0.004604166667,-1.477207093e-06
0.004625,-1.417208978e-06
0.004645833333,-1.352722393e-06
0.004666666667,-1.279800017e-06
0.0046875,-1.196745643e-06
0.004708333333,-1.106309355e-06
0.004729166667,-1.016459237e-06
0.00475,-9.31788577e-07
0.004770833333,-8.531605431e-07
0.004791666667,-7.73750287e-07
0.0048125,-6.854763797e-07
0.004833333333,-5.85063276e-07
0.004854166667,-4.74347928e-07
0.004875,-3.627804404e-07
0.004895833333,-2.539196373e-07
0.004916666667,-1.490401473e-07
0.0049375,-3.906766111e-08
0.004958333333,8.214434644e-08
0.004979166667,2.164157991e-07
0.005,3.572206424e-07
0.005020833333,4.927993018e-07
0.005041666667,6.175612839e-07
0.0050625,7.311033983e-07
0.005083333333,8.422222777e-07
0.005104166667,9.580411415e-07
0.005125,1.079213462e-06
0.005145833333,1.201053237e-06
0.005166666667,1.313111056e-06
0.0051875,1.414244934e-06
0.005208333333,1.506011017e-06
0.005229166667,1.599578127e-06
0.00525,1.700447797e-06
0.005270833333,1.809601031e-06
0.005291666667,1.920371687e-06
0.0053125,2.023685283e-06
0.005333333333,2.116403721e-06
0.005354166667,2.198808716e-06
0.005375,2.277639169e-06
0.005395833333,2.355384822e-06
0.005416666667,2.431135727e-06
0.0054375,2.499686616e-06
0.005458333333,2.553339755e-06
0.005479166667,2.592134706e-06
0.0055,2.61523337e-06
0.005520833333,2.631792768e-06
0.005541666667,2.643859261e-06
0.0055625,2.655801381e-06
0.005583333333,2.665125976e-06
0.005604166667,2.667781018e-06
0.005625,2.662623729e-06
0.005645833333,2.646775101e-06
0.005666666667,2.62529511e-06
0.0056875,2.599625986e-06
0.005708333333,2.57253987e-06
0.005729166667,2.542678885e-06
0.00575,2.502591997e-06
0.005770833333,2.449058684e-06
0.005791666667,2.37491281e-06
0.0058125,2.286296649e-06
0.005833333333,2.186286565e-06
0.005854166667,2.084041625e-06
0.005875,1.98024054e-06
0.005895833333,1.870864708e-06
0.005916666667,1.750968977e-06
0.0059375,1.615519409e-06
0.005958333333,1.471802989e-06
0.005979166667,1.32696016e-06
0.006,1.191014235e-06
0.006020833333,1.063739319e-06
0.006041666667,9.354434951e-07
0.0060625,7.975915537e-07
0.006083333333,6.402237887e-07
0.006104166667,4.723474945e-07
0.006125,2.996499404e-07
0.006145833333,1.341963412e-07
0.006166666667,-2.73180234e-08
0.0061875,-1.942405419e-07
0.006208333333,-3.754447562e-07
0.006229166667,-5.755882739e-07
0.00625,-7.818757126e-07
0.006270833333,-9.825405414e-07
0.006291666667,-1.165571689e-06
0.0063125,-1.332961006e-06
0.006333333333,-1.496287837e-06
0.006354166667,-1.663274247e-06
0.006375,-1.839352649e-06
0.006395833333,-2.011590141e-06
0.006416666667,-2.173275789e-06
0.0064375,-2.315173788e-06
0.006458333333,-2.446432973e-06
0.006479166667,-2.577468422e-06
0.0065,-2.71830686e-06
0.006520833333,-2.870436219e-06
0.006541666667,-3.021664952e-06
0.0065625,-3.164231885e-06
0.006583333333,-3.288452035e-06
0.006604166667,-3.39973144e-06
0.006625,-3.504469305e-06
0.006645833333,-3.605949132e-06
0.006666666667,-3.706070856e-06
0.0066875,-3.7909806e-06
0.006708333333,-3.858875516e-06
0.006729166667,-3.900321644e-06
0.00675,-3.923652457e-06
0.006770833333,-3.934406777e-06
0.006791666667,-3.939804628e-06
0.0068125,-3.944644959e-06
0.006833333333,-3.943104275e-06
0.006854166667,-3.934234428e-06
0.006875,-3.910502983e-06
0.006895833333,-3.874304184e-06
0.006916666667,-3.828306035e-06
0.0069375,-3.776452559e-06
0.006958333333,-3.724119779e-06
0.006979166667,-3.66369045e-06
0.007,-3.593369911e-06
0.007020833333,-3.497865919e-06
0.007041666667,-3.378962901e-06
0.0070625,-3.235459644e-06
0.007083333333,-3.079150019e-06
0.007104166667,-2.919399549e-06
0.007125,-2.755855576e-06
0.007145833333,-2.587413974e-06
0.007166666667,-2.399845243e-06
0.0071875,-2.194449962e-06
0.007208333333,-1.974959105e-06
0.007229166667,-1.755413791e-06
0.00725,-1.550045795e-06
0.007270833333,-1.353315156e-06
0.007291666667,-1.160500346e-06
0.0073125,-9.476856917e-07
0.007333333333,-7.143810876e-07
0.007354166667,-4.613530393e-07
0.007375,-2.061832305e-07
0.007395833333,3.941259763e-08
0.007416666667,2.798898038e-07
0.0074375,5.243596775e-07
0.007458333333,7.926171293e-07
0.007479166667,1.082395443e-06
0.0075,1.383682161e-06
0.007520833333,1.674741384e-06
0.007541666667,1.939917411e-06
0.0075625,2.185678341e-06
0.007583333333,2.420019655e-06
0.007604166667,2.665492048e-06
0.007625,2.916302719e-06
0.007645833333,3.167915793e-06
0.007666666667,3.399618208e-06
0.0076875,3.606098289e-06
0.007708333333,3.796424608e-06
0.007729166667,3.983465376e-06
0.00775,4.186601927e-06
0.007770833333,4.400052603e-06
0.007791666667,4.616367278e-06
0.0078125,4.817050467e-06
0.007833333333,4.993170933e-06
0.007854166667,5.151874575e-06
0.007875,5.296202289e-06
0.007895833333,5.441623671e-06
0.007916666667,5.576719104e-06
0.0079375,5.699185294e-06
0.007958333333,5.791664989e-06
0.007979166667,5.852484719e-06
0.008,5.886273357e-06
0.008020833333,5.900345968e-06
0.008041666667,5.909817901e-06
0.0080625,5.912585948e-06
0.008083333333,5.911974313e-06
0.008104166667,5.897339634e-06
0.008125,5.864640571e-06
0.008145833333,5.815052191e-06
0.008166666667,5.747393061e-06
0.0081875,5.676606634e-06
0.008208333333,5.596327355e-06
0.008229166667,5.513652013e-06
0.00825,5.410100584e-06
0.008270833333,5.279528978e-06
0.008291666667,5.114007763e-06
0.0083125,4.91509536e-06
0.008333333333,4.700696081e-06
0.008354166667,4.475607966e-06
0.008375,4.251606242e-06
0.008395833333,4.015676495e-06
0.008416666667,3.759026413e-06
0.0084375,3.477801101e-06
0.008458333333,3.174608992e-06
0.008479166667,2.876018925e-06
0.0085,2.586507435e-06
0.008520833333,2.317846111e-06
0.008541666667,2.045303063e-06
0.0085625,1.754910727e-06
0.008583333333,1.433102625e-06
0.008604166667,1.086221573e-06
0.008625,7.376635267e-07
0.008645833333,3.957904084e-07
0.008666666667,6.683487896e-08
0.0086875,-2.733422946e-07
0.008708333333,-6.386735549e-07
0.008729166667,-1.033834906e-06
0.00875,-1.445302473e-06
0.008770833333,-1.839275683e-06
0.008791666667,-2.208252226e-06
0.0088125,-2.542303491e-06
0.008833333333,-2.871750212e-06
0.008854166667,-3.205656185e-06
0.008875,-3.552836006e-06
0.008895833333,-3.897690021e-06
0.008916666667,-4.216351044e-06
0.0089375,-4.506870027e-06
0.008958333333,-4.770066425e-06
0.008979166667,-5.036310995e-06
0.009,-5.31648584e-06
0.009020833333,-5.613532267e-06
0.009041666667,-5.913585028e-06
0.0090625,-6.189405212e-06
0.009083333333,-6.440844572e-06
0.009104166667,-6.659579867e-06
0.009125,-6.870923244e-06
0.009145833333,-7.073122106e-06
0.009166666667,-7.270055448e-06
0.0091875,-7.445491519e-06
0.009208333333,-7.58266151e-06
0.009229166667,-7.681272109e-06
0.00925,-7.739313332e-06
0.009270833333,-7.77922196e-06
0.009291666667,-7.806645954e-06
0.0093125,-7.830906725e-06
0.009333333333,-7.847947018e-06
0.009354166667,-7.844459105e-06
0.009375,-7.821868167e-06
0.009395833333,-7.767948773e-06
0.009416666667,-7.702143193e-06
0.0094375,-7.621008081e-06
0.009458333333,-7.5390044e-06
0.009479166667,-7.445563824e-06
0.0095,-7.327861113e-06
0.009520833333,-7.174578968e-06
0.009541666667,-6.97060068e-06
0.0095625,-6.731803751e-06
0.009583333333,-6.465448223e-06
0.009604166667,-6.19406137e-06
0.009625,-5.919248451e-06
0.009645833333,-5.628069175e-06
0.009666666667,-5.312809208e-06
0.0096875,-4.955901659e-06
0.009708333333,-4.582634574e-06
0.009729166667,-4.203102435e-06
0.00975,-3.848319466e-06
0.009770833333,-3.510243232e-06
0.009791666667,-3.171184744e-06
0.0098125,-2.806009888e-06
0.009833333333,-2.395722731e-06
0.009854166667,-1.96017254e-06
0.009875,-1.514838459e-06
0.009895833333,-1.087840246e-06
0.009916666667,-6.708798423e-07
0.0099375,-2.410544653e-07
0.009958333333,2.208375633e-07
0.009979166667,7.293359658e-07
0.01,1.259834676e-06
0.01002083333,1.788487566e-06
0.01004166667,2.255931577e-06
0.0100625,2.674699999e-06
0.01008333333,3.072694881e-06
0.01010416667,3.484137551e-06
0.010125,3.924783414e-06
0.01014583333,4.371770501e-06
0.01016666667,4.79914479e-06
0.0101875,5.179924756e-06
0.01020833333,5.526271252e-06
0.01022916667,5.864977084e-06
0.01025,6.219087027e-06
0.01027083333,6.6041016e-06
0.01029166667,6.993247553e-06
0.0103125,7.373436802e-06
0.01033333333,7.711636499e-06
0.01035416667,8.019127563e-06
0.010375,8.296190572e-06
0.01039583333,8.558958143e-06
0.01041666667,8.807034646e-06
0.0104375,9.02490774e-06
0.01045833333,9.212768418e-06
0.01047916667,9.35666867e-06
0.0105,9.469466022e-06
0.01052083333,9.558466445e-06
0.01054166667,9.629730812e-06
0.0105625,9.690002116e-06
0.01058333333,9.724018128e-06
0.01060416667,9.738692825e-06
0.010625,9.718412002e-06
0.01064583333,9.683207281e-06
0.01066666667,9.627083273e-06
0.0106875,9.566211702e-06
0.01070833333,9.495374798e-06
0.01072916667,9.404820958e-06
0.01075,9.283383406e-06
0.01077083333,9.107627193e-06
0.01079166667,8.886191608e-06
0.0108125,8.620453627e-06
0.01083333333,8.335138773e-06
0.01085416667,8.047530173e-06
0.010875,7.746459232e-06
0.01089583333,7.429005564e-06
0.01091666667,7.053460649e-06
0.0109375,6.63779565e-06
0.01095833333,6.183392088e-06
0.01097916667,5.743419479e-06
0.011,5.336469258e-06
0.01102083333,4.96110215e-06
0.01104166667,4.596020972e-06
0.0110625,4.183926194e-06
0.01108333333,3.720128234e-06
0.01110416667,3.205287157e-06
0.011125,2.679464387e-06
0.01114583333,2.175485633e-06
0.01116666667,1.686849032e-06
0.0111875,1.202510362e-06
0.01120833333,6.661640555e-07
0.01122916667,8.785356442e-08
0.01125,-5.294703556e-07
0.01127083333,-1.131110025e-06
0.01129166667,-1.691844091e-06
0.0113125,-2.205244982e-06
0.01133333333,-2.690756219e-06
0.01135416667,-3.185033393e-06
0.011375,-3.687456001e-06
0.01139583333,-4.19368962e-06
0.01141666667,-4.676071512e-06
0.0114375,-5.123366918e-06
0.01145833333,-5.552954008e-06
0.01147916667,-5.973381121e-06
0.0115,-6.422513707e-06
0.01152083333,-6.8735485e-06
0.01154166667,-7.326946616e-06
0.0115625,-7.743782589e-06
0.01158333333,-8.12525559e-06
0.01160416667,-8.483311831e-06
0.011625,-8.824492397e-06
0.01164583333,-9.168961697e-06
0.01166666667,-9.495337508e-06
0.0116875,-9.787321687e-06
0.01170833333,-1.002152476e-05
0.01172916667,-1.019197589e-05
0.01175,-1.031739521e-05
0.01177083333,-1.04097262e-05
0.01179166667,-1.050387618e-05
0.0118125,-1.058392991e-05
0.01183333333,-1.066324057e-05
0.01185416667,-1.071033148e-05
0.011875,-1.072093255e-05
0.01189583333,-1.069896734e-05
0.01191666667,-1.064379558e-05
0.0119375,-1.058183534e-05
0.01195833333,-1.051441632e-05
0.01197916667,-1.04396986e-05
0.012,-1.033835451e-05
0.01202083333,-1.017661361e-05
0.01204166667,-9.951929314e-06
0.0120625,-9.655826943e-06
0.01208333333,-9.3313447e-06
0.01210416667,-8.980801795e-06
0.012125,-8.636250641e-06
0.01214583333,-8.282535418e-06
0.01216666667,-7.905057828e-06
0.0121875,-7.483834452e-06
0.01220833333,-7.029376775e-06
0.01222916667,-6.566146567e-06
0.01225,-6.117285466e-06
0.01227083333,-5.686427357e-06
0.01229166667,-5.251717539e-06
0.0123125,-4.786380032e-06
0.01233333333,-4.284102488e-06
0.01235416667,-3.735324299e-06
0.012375,-3.181633019e-06
0.01239583333,-2.628726179e-06
0.01241666667,-2.086710992e-06
0.0124375,-1.517618671e-06
0.01245833333,-9.172408681e-07
0.01247916667,-2.778103294e-07
0.0125,3.721127371e-07
0.01252083333,9.95022674e-07
0.01254166667,1.577912826e-06
0.0125625,2.134387387e-06
0.01258333333,2.689282155e-06
0.01260416667,3.263173312e-06
0.012625,3.847400876e-06
0.01264583333,4.413672741e-06
0.01266666667,4.923128927e-06
0.0126875,5.389145826e-06
0.01270833333,5.820943898e-06
0.01272916667,6.273302915e-06
0.01275,6.75424144e-06
0.01277083333,7.273474239e-06
0.01279166667,7.773217476e-06
0.0128125,8.23483424e-06
0.01283333333,8.644113223e-06
0.01285416667,9.010802387e-06
0.012875,9.373669855e-06
0.01289583333,9.738318113e-06
0.01291666667,1.009087828e-05
0.0129375,1.040820553e-05
0.01295833333,1.065714878e-05
0.01297916667,1.08404347e-05
0.013,1.095959033e-05
0.01302083333,1.106241416e-05
0.01304166667,1.114402403e-05
0.0130625,1.122881258e-05
0.01308333333,1.129044449e-05
0.01310416667,1.131692898e-05
0.013125,1.131467707e-05
0.01314583333,1.127785436e-05
0.01316666667,1.122484173e-05
0.0131875,1.116554722e-05
0.01320833333,1.109255118e-05
0.01322916667,1.098983648e-05
0.01325,1.08465847e-05
0.01327083333,1.06371981e-05
0.01329166667,1.035939567e-05
0.0133125,1.006326784e-05
0.01333333333,9.724869415e-06
0.01335416667,9.385515114e-06
0.013375,9.023337043e-06
0.01339583333,8.613261343e-06
0.01341666667,8.153710041e-06
0.0134375,7.638584975e-06
0.01345833333,7.105608802e-06
0.01347916667,6.609959655e-06
0.0135,6.156192285e-06
0.01352083333,5.737278116e-06
0.01354166667,5.295192295e-06
0.0135625,4.799913313e-06
0.01358333333,4.214879027e-06
0.01360416667,3.590791039e-06
0.013625,2.960799975e-06
0.01364583333,2.382278808e-06
0.01366666667,1.837727837e-06
0.0136875,1.292344336e-06
0.01370833333,6.868021387e-07
0.01372916667,8.170825794e-09
0.01375,-7.244007634e-07
0.01377083333,-1.459426471e-06
0.01379166667,-2.127828111e-06
0.0138125,-2.726771527e-06
0.01383333333,-3.267482953e-06
0.01385416667,-3.790869414e-06
0.013875,-4.347430604e-06
0.01389583333,-4.901657121e-06
0.01391666667,-5.46142428e-06
0.0139375,-5.992401384e-06
0.01395833333,-6.496357855e-06
0.01397916667,-6.983193089e-06
0.014,-7.459497283e-06
0.01402083333,-7.916461072e-06
0.01404166667,-8.351323231e-06
0.0140625,-8.767650797e-06
0.01408333333,-9.168909855e-06
0.01410416667,-9.576990124e-06
0.014125,-1.001158398e-05
0.01414583333,-1.043467273e-05
0.01416666667,-1.080452239e-05
0.0141875,-1.107060052e-05
0.01420833333,-1.121955574e-05
0.01422916667,-1.127956511e-05
0.01425,-1.133878686e-05
0.01427083333,-1.141551365e-05
0.01429166667,-1.154834263e-05
0.0143125,-1.168317885e-05
0.01433333333,-1.17420559e-05
0.01435416667,-1.168688868e-05
0.014375,-1.151874221e-05
0.01439583333,-1.131801946e-05
0.01441666667,-1.116926614e-05
0.0144375,-1.109181903e-05
0.01445833333,-1.110317135e-05
0.01447916667,-1.108502602e-05
0.0145,-1.09753928e-05
0.01452083333,-1.06826883e-05
0.01454166667,-1.023169625e-05
0.0145625,-9.69283883e-06
0.01458333333,-9.171244528e-06
0.01460416667,-8.72716646e-06
0.014625,-8.377623999e-06
0.01464583333,-8.03965213e-06
0.01466666667,-7.63983553e-06
0.0146875,-7.105964414e-06
0.01470833333,-6.454353297e-06
0.01472916667,-5.760605745e-06
0.01475,-5.121591585e-06
0.01477083333,-4.582667771e-06
0.01479166667,-4.132115464e-06
0.0148125,-3.688733386e-06
0.01483333333,-3.167136583e-06
0.01485416667,-2.494389264e-06
0.014875,-1.703689577e-06
0.01489583333,-8.956517377e-07
0.01491666667,-1.344773182e-07
0.0149375,5.201662248e-07
0.01495833333,1.075940077e-06
0.01497916667,1.606283718e-06
0.015,2.167239472e-06
0.01502083333,2.829942787e-06
0.01504166667,3.581643341e-06
0.0150625,4.392870323e-06
0.01508333333,5.207184131e-06
0.01510416667,5.977422916e-06
0.015125,6.61402737e-06
0.01514583333,7.133864528e-06
0.01516666667,7.536732028e-06
0.0151875,7.913554327e-06
0.01520833333,8.316571439e-06
0.01522916667,8.802748198e-06
0.01525,9.356565897e-06
0.01527083333,9.935748494e-06
0.01529166667,1.045552654e-05
0.0153125,1.086559496e-05
0.01533333333,1.119180706e-05
0.01535416667,1.150478874e-05
0.015375,1.183324912e-05
0.01539583333,1.2271591e-05
0.01541666667,1.272060854e-05
0.0154375,1.310477637e-05
0.01545833333,1.331865769e-05
0.01547916667,1.334174704e-05
0.0155,1.321526361e-05
0.01552083333,1.303732734e-05
0.01554166667,1.292800607e-05
0.0155625,1.291643457e-05
0.01558333333,1.298240932e-05
0.01560416667,1.304562829e-05
0.015625,1.300700933e-05
0.01564583333,1.287596751e-05
0.01566666667,1.264391722e-05
0.0156875,1.238636651e-05
0.01570833333,1.21406556e-05
0.01572916667,1.193505523e-05
0.01575,1.168139079e-05
0.01577083333,1.134631293e-05
0.01579166667,1.089150373e-05
0.0158125,1.032322416e-05
0.01583333333,9.74413615e-06
0.01585416667,9.189760021e-06
0.015875,8.696960322e-06
0.01589583333,8.230176718e-06
0.01591666667,7.692307008e-06
0.0159375,7.079579518e-06
0.01595833333,6.339327228e-06
0.01597916667,5.596666597e-06
0.016,4.876466392e-06
0.01602083333,4.246208391e-06
0.01604166667,3.645625156e-06
0.0160625,3.042407343e-06
0.01608333333,2.346821475e-06
0.01610416667,1.537440653e-06
0.016125,7.147086762e-07
0.01614583333,-8.229443438e-08
0.01616666667,-7.798096249e-07
0.0161875,-1.428023779e-06
0.01620833333,-2.078709713e-06
0.01622916667,-2.779485612e-06
0.01625,-3.600474201e-06
0.01627083333,-4.480607004e-06
0.01629166667,-5.400866485e-06
0.0163125,-6.251581908e-06
0.01633333333,-7.017969438e-06
0.01635416667,-7.665525118e-06
0.016375,-8.225894817e-06
0.01639583333,-8.740141311e-06
0.01641666667,-9.213098565e-06
0.0164375,-9.72091857e-06
0.01645833333,-1.026743212e-05
0.01647916667,-1.090009573e-05
0.0165,-1.151325159e-05
0.01652083333,-1.205883927e-05
0.01654166667,-1.251903541e-05
0.0165625,-1.286438601e-05
0.01658333333,-1.321746004e-05
0.01660416667,-1.354886354e-05
0.016625,-1.400432939e-05
0.01664583333,-1.4457426e-05
0.01666666667,-1.486814199e-05
0.0166875,-1.512002564e-05
0.01670833333,-1.516868997e-05
0.01672916667,-1.509324647e-05
0.01675,-1.494814569e-05
0.01677083333,-1.485614848e-05
0.01679166667,-1.488619455e-05
0.0168125,-1.497978883e-05
0.01683333333,-1.503107342e-05
0.01685416667,-1.495855486e-05
0.016875,-1.470375992e-05
0.01689583333,-1.428926862e-05
0.01691666667,-1.38636442e-05
0.0169375,-1.349072136e-05
0.01695833333,-1.327891005e-05
0.01697916667,-1.31426923e-05
0.017,-1.300916938e-05
0.01702083333,-1.269357836e-05
0.01704166667,-1.21524281e-05
0.0170625,-1.142822566e-05
0.01708333333,-1.059337592e-05
0.01710416667,-9.825148481e-06
0.017125,-9.159042747e-06
0.01714583333,-8.588172932e-06
0.01716666667,-8.017707842e-06
0.0171875,-7.313986316e-06
0.01720833333,-6.501284133e-06
0.01722916667,-5.583936854e-06
0.01725,-4.705578249e-06
0.01727083333,-3.909872248e-06
0.01729166667,-3.239299986e-06
0.0173125,-2.616929805e-06
0.01733333333,-1.972668997e-06
0.01735416667,-1.233671924e-06
0.017375,-3.624276985e-07
0.01739583333,6.101782333e-07
0.01741666667,1.661872261e-06
0.0174375,2.736218676e-06
0.01745833333,3.73959324e-06
0.01747916667,4.656179499e-06
0.0175,5.449356649e-06
0.01752083333,6.097834103e-06
0.01754166667,6.751649835e-06
0.0175625,7.498261766e-06
0.01758333333,8.354504644e-06
0.01760416667,9.302853869e-06
0.017625,1.026613518e-05
0.01764583333,1.104805779e-05
0.01766666667,1.164632522e-05
0.0176875,1.210622213e-05
0.01770833333,1.255998723e-05
0.01772916667,1.310460812e-05
0.01775,1.378242723e-05
0.01777083333,1.452542438e-05
0.01779166667,1.514701671e-05
0.0178125,1.567873187e-05
0.01783333333,1.600455835e-05
0.01785416667,1.630280713e-05
0.017875,1.657061694e-05
0.01789583333,1.692038859e-05
0.01791666667,1.731393422e-05
0.0179375,1.768106813e-05
0.01795833333,1.799751954e-05
0.01797916667,1.817837619e-05
0.018,1.821797014e-05
0.01802083333,1.812799746e-05
0.01804166667,1.789565067e-05
0.0180625,1.769899427e-05
0.01808333333,1.743481334e-05
0.01810416667,1.725925904e-05
0.018125,1.708414311e-05
0.01814583333,1.695088031e-05
0.01816666667,1.68168317e-05
0.0181875,1.659002191e-05
0.01820833333,1.628298924e-05
0.01822916667,1.588185478e-05
0.01825,1.541634811e-05
0.01827083333,1.484519908e-05
0.01829166667,1.427306597e-05
0.0183125,1.362580497e-05
0.01833333333,1.298503412e-05
0.01835416667,1.23767004e-05
0.018375,1.164001515e-05
0.01839583333,1.088136469e-05
0.01841666667,9.994400898e-06
0.0184375,9.0160338e-06
0.01845833333,8.061549124e-06
0.01847916667,7.184654351e-06
0.0185,6.506225418e-06
0.01852083333,5.865907497e-06
0.01854166667,5.22074879e-06
0.0185625,4.335185167e-06
0.01858333333,3.320541737e-06
0.01860416667,2.170062999e-06
0.018625,9.961436263e-07
0.01864583333,4.144476407e-08
0.01866666667,-8.049725579e-07
0.0186875,-1.531287467e-06
0.01870833333,-2.356955974e-06
0.01872916667,-3.296156592e-06
0.01875,-4.410783731e-06
0.01877083333,-5.552975381e-06
0.01879166667,-6.637209481e-06
0.0188125,-7.655952686e-06
0.01883333333,-8.442659237e-06
0.01885416667,-9.205816241e-06
0.018875,-9.902157217e-06
0.01889583333,-1.059981878e-05
0.01891666667,-1.138769585e-05
0.0189375,-1.2150771e-05
0.01895833333,-1.298132156e-05
0.01897916667,-1.375862485e-05
0.019,-1.446006991e-05
0.01902083333,-1.499287373e-05
0.01904166667,-1.545876512e-05
0.0190625,-1.588807027e-05
0.01908333333,-1.634255204e-05
0.01910416667,-1.693126978e-05
0.019125,-1.758610961e-05
0.01914583333,-1.821697333e-05
0.01916666667,-1.865158629e-05
0.0191875,-1.886722021e-05
0.01920833333,-1.88919621e-05
0.01922916667,-1.875412818e-05
0.01925,-1.878039438e-05
0.01927083333,-1.889893065e-05
0.01929166667,-1.913859342e-05
0.0193125,-1.938087189e-05
0.01933333333,-1.939948743e-05
0.01935416667,-1.915197026e-05
0.019375,-1.868357685e-05
0.01939583333,-1.81391697e-05
0.01941666667,-1.76996673e-05
0.0194375,-1.748965769e-05
0.01945833333,-1.748879731e-05
0.01947916667,-1.749952025e-05
0.0195,-1.736268496e-05
0.01952083333,-1.68583847e-05
0.01954166667,-1.608860657e-05
0.0195625,-1.50820415e-05
0.01958333333,-1.413943301e-05
0.01960416667,-1.335876186e-05
0.019625,-1.280709876e-05
0.01964583333,-1.236637763e-05
0.01966666667,-1.179960691e-05
0.0196875,-1.107162188e-05
0.01970833333,-1.000326301e-05
0.01972916667,-8.800557225e-06
0.01975,-7.668966646e-06
0.01977083333,-6.705585292e-06
0.01979166667,-6.139663583e-06
0.0198125,-5.668710855e-06
0.01983333333,-5.14035537e-06
0.01985416667,-4.320991138e-06
0.019875,-3.071311767e-06
0.01989583333,-1.512632707e-06
0.01991666667,5.885482324e-08
0.0199375,1.377548756e-06
0.01995833333,2.291182227e-06
0.01997916667,2.720237262e-06
0.02,3.180626209e-06
0.02002083333,3.804490234e-06
0.02004166667,4.769187854e-06
0.0200625,6.079432751e-06
0.02008333333,7.525780347e-06
0.02010416667,8.793622328e-06
0.020125,9.645289538e-06
0.02014583333,1.017789054e-05
0.02016666667,1.046798116e-05
0.0201875,1.099295059e-05
0.02020833333,1.187288581e-05
0.02022916667,1.296594291e-05
0.02025,1.413714926e-05
0.02027083333,1.497452104e-05
0.02029166667,1.537358912e-05
0.0203125,1.54798945e-05
0.02033333333,1.551345485e-05
0.02035416667,1.583929588e-05
0.020375,1.650891318e-05
0.02039583333,1.747525675e-05
0.02041666667,1.833508759e-05
0.0204375,1.902434451e-05
0.02045833333,1.933873864e-05
0.02047916667,1.930491271e-05
0.0205,1.913832421e-05
0.02052083333,1.898570008e-05
0.02054166667,1.900186908e-05
0.0205625,1.910005813e-05
0.02058333333,1.925817014e-05
0.02060416667,1.922310912e-05
0.020625,1.907891237e-05
0.02064583333,1.871855238e-05
0.02066666667,1.818804958e-05
0.0206875,1.783839434e-05
0.02070833333,1.751679702e-05
0.02072916667,1.739527579e-05
0.02075,1.725170296e-05
0.02077083333,1.687307304e-05
0.02079166667,1.624206197e-05
0.0208125,1.545078703e-05
0.02083333333,1.463324406e-05
0.02085416667,1.396199332e-05
0.020875,1.347756552e-05
0.02089583333,1.304978014e-05
0.02091666667,1.260366298e-05
0.0209375,1.206008801e-05
0.02095833333,1.136859282e-05
0.02097916667,1.051089566e-05
0.021,9.510611562e-06
0.02102083333,8.475775758e-06
0.02104166667,7.407137673e-06
0.0210625,6.503517398e-06
0.02108333333,5.549778962e-06
0.02110416667,4.636260655e-06
0.021125,3.785037279e-06
0.02114583333,2.722488034e-06
0.02116666667,1.548683144e-06
0.0211875,8.810218333e-08
0.02120833333,-1.215726797e-06
0.02122916667,-2.313456207e-06
0.02125,-3.108939381e-06
0.02127083333,-3.641083367e-06
0.02129166667,-4.195493148e-06
0.0213125,-4.897534382e-06
0.02133333333,-5.785002031e-06
0.02135416667,-6.668622973e-06
0.021375,-7.487918083e-06
0.02139583333,-8.196556337e-06
0.02141666667,-8.950817573e-06
0.0214375,-9.675552974e-06
0.02145833333,-1.046741818e-05
0.02147916667,-1.134269769e-05
0.0215,-1.212021743e-05
0.02152083333,-1.282770791e-05
0.02154166667,-1.351472292e-05
0.0215625,-1.418752254e-05
0.02158333333,-1.497028188e-05
0.02160416667,-1.569519736e-05
0.021625,-1.628517202e-05
0.02164583333,-1.660930502e-05
0.02166666667,-1.690401041e-05
0.0216875,-1.703586167e-05
0.02170833333,-1.72967375e-05
0.02172916667,-1.755673111e-05
0.02175,-1.779093691e-05
0.02177083333,-1.787621113e-05
0.02179166667,-1.765791785e-05
0.0218125,-1.727294148e-05
0.02183333333,-1.689975579e-05
0.02185416667,-1.649981823e-05
0.021875,-1.634390719e-05
0.02189583333,-1.633459578e-05
0.02191666667,-1.658373367e-05
0.0219375,-1.714485734e-05
0.02195833333,-1.752031312e-05
0.02197916667,-1.773642362e-05
0.022,-1.751124364e-05
0.02202083333,-1.670441998e-05
0.02204166667,-1.564298327e-05
0.0220625,-1.465270634e-05
0.02208333333,-1.388049805e-05
0.02210416667,-1.354327651e-05
0.022125,-1.346239151e-05
0.02214583333,-1.30207336e-05
0.02216666667,-1.248734407e-05
0.0221875,-1.130442433e-05
0.02220833333,-9.741765098e-06
0.02222916667,-7.987059689e-06
0.02225,-6.30639579e-06
0.02227083333,-5.571113434e-06
0.02229166667,-5.800026884e-06
0.0223125,-6.613077858e-06
0.02233333333,-7.264947271e-06
0.02235416667,-6.974408734e-06
0.022375,-5.39423354e-06
0.02239583333,-2.695159765e-06
0.02241666667,-1.604271347e-07
0.0224375,1.292721777e-06
0.02245833333,1.171954068e-06
0.02247916667,4.151047506e-08
0.0225,-8.426097793e-07
0.02252083333,-6.104218073e-07
0.02254166667,8.717227047e-07
0.0225625,3.019915766e-06
0.02258333333,5.154366136e-06
0.02260416667,6.711332844e-06
0.022625,7.59716886e-06
0.02264583333,8.211900422e-06
0.02266666667,8.752062968e-06
0.0226875,9.221870641e-06
0.02270833333,9.479617802e-06
0.02272916667,9.684669749e-06
0.02275,1.028632596e-05
0.02277083333,1.142197561e-05
0.02279166667,1.288307794e-05
0.0228125,1.402417547e-05
0.02283333333,1.446998613e-05
0.02285416667,1.383725612e-05
0.022875,1.265806168e-05
0.02289583333,1.206131128e-05
0.02291666667,1.230144517e-05
0.0229375,1.340269682e-05
0.02295833333,1.478991089e-05
0.02297916667,1.563241676e-05
0.023,1.5679223e-05
0.02302083333,1.52520297e-05
0.02304166667,1.481640629e-05
0.0230625,1.478104696e-05
0.02308333333,1.496607729e-05
0.02310416667,1.486923793e-05
0.023125,1.45344211e-05
0.02314583333,1.403631359e-05
0.02316666667,1.351611536e-05
0.0231875,1.312132099e-05
0.02320833333,1.329898896e-05
0.02322916667,1.325731591e-05
0.02325,1.302357759e-05
0.02327083333,1.237025026e-05
0.02329166667,1.152805271e-05
0.0233125,1.063724358e-05
0.02333333333,9.969186976e-06
0.02335416667,9.819821571e-06
0.023375,1.002223598e-05
0.02339583333,1.046392481e-05
0.02341666667,1.062325282e-05
0.0234375,1.036760386e-05
0.02345833333,9.563779713e-06
0.02347916667,8.242564945e-06
0.0235,6.868424407e-06
0.02352083333,5.363768651e-06
0.02354166667,4.101687864e-06
0.0235625,2.900932714e-06
0.02358333333,1.736735385e-06
0.02360416667,6.293248589e-07
0.023625,-8.542974683e-08
0.02364583333,-5.041429176e-07
0.02366666667,-8.933120625e-07
0.0236875,-1.363660203e-06
0.02370833333,-3.007476835e-06
0.02372916667,-4.932433512e-06
0.02375,-6.652243883e-06
0.02377083333,-7.402225492e-06
0.02379166667,-7.145549262e-06
0.0238125,-6.343924724e-06
0.02383333333,-6.611699064e-06
0.02385416667,-7.669068509e-06
0.023875,-9.31892373e-06
0.02389583333,-1.082695508e-05
0.02391666667,-1.11536483e-05
0.0239375,-1.070389135e-05
0.02395833333,-1.034440538e-05
0.02397916667,-1.067917401e-05
0.024,-1.198547579e-05
0.02402083333,-1.362405692e-05
0.02404166667,-1.451802018e-05
0.0240625,-1.472867007e-05
0.02408333333,-1.430679004e-05
0.02410416667,-1.384066854e-05
0.024125,-1.398332097e-05
0.02414583333,-1.453552068e-05
0.02416666667,-1.535978481e-05
0.0241875,-1.620324838e-05
0.02420833333,-1.701850488e-05
0.02422916667,-1.775874989e-05
0.02425,-1.830609472e-05
0.02427083333,-1.841986341e-05
0.02429166667,-1.800613973e-05
0.0243125,-1.758536382e-05
0.02433333333,-1.724905269e-05
0.02435416667,-1.718504973e-05
0.024375,-1.745002919e-05
0.02439583333,-1.740990956e-05
0.02441666667,-1.659366171e-05
0.0244375,-1.553416041e-05
0.02445833333,-1.475166209e-05
0.02447916667,-1.460588101e-05
0.0245,-1.517717828e-05
0.02452083333,-1.567035724e-05
0.02454166667,-1.492332194e-05
0.0245625,-1.360262286e-05
0.02458333333,-1.159530984e-05
0.02460416667,-9.674044122e-06
0.024625,-8.160077414e-06
0.02464583333,-7.220065982e-06
0.02466666667,-6.514224879e-06
0.0246875,-6.110179584e-06
0.02470833333,-6.118514648e-06
0.02472916667,-6.467232197e-06
0.02475,-6.999440757e-06
0.02477083333,-6.876688985e-06
0.02479166667,-6.416966244e-06
0.0248125,-5.820584192e-06
0.02483333333,-5.688450528e-06
0.02485416667,-6.634531019e-06
0.024875,-8.074181096e-06
0.02489583333,-8.838185749e-06
0.02491666667,-7.644970538e-06
0.0249375,-5.054954272e-06
0.02495833333,-1.208198228e-06
0.02497916667,2.410080697e-06
0.025,4.95469294e-06
0.02502083333,6.66283313e-06
0.02504166667,7.467933301e-06
0.0250625,8.217660252e-06
0.02508333333,9.129355021e-06
0.02510416667,9.895022231e-06
0.025125,1.050144328e-05
0.02514583333,1.128026906e-05
0.02516666667,1.193382013e-05
0.0251875,1.206287743e-05
0.02520833333,1.217618592e-05
0.02522916667,1.140463792e-05
0.02525,1.140145469e-05
0.02527083333,1.191450974e-05
0.02529166667,1.253379833e-05
0.0253125,1.226028962e-05
0.02533333333,1.07257747e-05
0.02535416667,7.775852282e-06
0.025375,4.9094524e-06
0.02539583333,3.776492576e-06
0.02541666667,5.877428976e-06
0.0254375,1.018331022e-05
0.02545833333,1.583962512e-05
0.02547916667,1.954110485e-05
0.0255,2.077542558e-05
0.02552083333,1.944947871e-05
0.02554166667,1.758131475e-05
0.0255625,1.574937778e-05
0.02558333333,1.513018378e-05
0.02560416667,1.545781743e-05
0.025625,1.594321657e-05
0.02564583333,1.682813308e-05
0.02566666667,1.738038009e-05
0.0256875,1.702812551e-05
0.02570833333,1.480839819e-05
0.02572916667,1.007901847e-05
0.02575,4.643640295e-06
0.02577083333,7.076141628e-08
0.02579166667,-1.619644536e-06
0.0258125,3.032691893e-07
0.02583333333,4.529461876e-06
0.02585416667,9.290130947e-06
0.025875,1.257431177e-05
0.02589583333,1.40624179e-05
0.02591666667,1.332112697e-05
0.0259375,1.152085406e-05
0.02595833333,1.075195451e-05
0.02597916667,9.95910159e-06
0.026,9.492541722e-06
0.02602083333,9.204102753e-06
0.02604166667,8.605908079e-06
0.0260625,6.679998023e-06
0.02608333333,4.156257546e-06
0.02610416667,9.500246279e-07
0.026125,-1.681281219e-06
0.02614583333,-3.833228675e-06
0.02616666667,-5.178737865e-06
0.0261875,-6.802802091e-06
0.02620833333,-8.414475815e-06
0.02622916667,-1.03061775e-05
0.02625,-1.024332778e-05
0.02627083333,-8.856656677e-06
0.02629166667,-5.549930393e-06
0.0263125,-3.399406751e-06
0.02633333333,-2.684590754e-06
0.02635416667,-5.119338766e-06
0.026375,-7.994610314e-06
0.02639583333,-9.860264981e-06
0.02641666667,-9.01938165e-06
0.0264375,-7.28892428e-06
0.02645833333,-5.215382771e-06
0.02647916667,-5.698005225e-06
0.0265,-7.451012152e-06
0.02652083333,-9.928998224e-06
0.02654166667,-1.093698665e-05
0.0265625,-1.129134125e-05
0.02658333333,-1.187966336e-05
0.02660416667,-1.374973817e-05
0.026625,-1.644646545e-05
0.02664583333,-1.786058237e-05
0.02666666667,-1.606965816e-05
0.0266875,-1.279784647e-05
0.02670833333,-9.744322597e-06
0.02672916667,-1.006774073e-05
0.02675,-1.322370463e-05
0.02677083333,-1.689460441e-05
0.02679166667,-1.688205157e-05
0.0268125,-1.349814556e-05
0.02683333333,-7.985984666e-06
0.02685416667,-4.155022907e-06
0.026875,-3.928813385e-06
0.02689583333,-6.315179689e-06
0.02691666667,-9.255078112e-06
0.0269375,-1.128408076e-05
0.02695833333,-1.191433694e-05
0.02697916667,-1.403916031e-05
0.027,-1.75710702e-05
0.02702083333,-2.088797555e-05
0.02704166667,-2.003679401e-05
0.0270625,-1.586588041e-05
0.02708333333,-8.162168342e-06
0.02710416667,-1.669147878e-06
0.027125,1.917192094e-06
0.02714583333,1.473485099e-06
0.02716666667,-5.970514394e-07
0.0271875,-1.331964086e-06
0.02720833333,-1.894691195e-07
0.02722916667,2.665243301e-06
0.02725,6.911314813e-06
0.02727083333,9.835387573e-06
0.02729166667,1.169989991e-05
0.0273125,9.444474017e-06
0.02733333333,3.927480975e-06
0.02735416667,-4.737107247e-06
0.027375,-1.273063936e-05
0.02739583333,-1.792281546e-05
0.02741666667,-1.761161548e-05
0.0274375,-1.424627044e-05
0.02745833333,-8.895038263e-06
0.02747916667,-5.547300589e-06
0.0275,-2.14733609e-06
0.02752083333,1.086219527e-06
0.02754166667,7.42270322e-06
0.0275625,1.361720206e-05
0.02758333333,1.847695785e-05
0.02760416667,1.765556408e-05
0.027625,1.468656592e-05
0.02764583333,1.348863771e-05
0.02766666667,1.663427611e-05
0.0276875,2.230301288e-05
0.02770833333,2.645550194e-05
0.02772916667,2.551270336e-05
0.02775,1.996142237e-05
0.02777083333,1.320424781e-05
0.02779166667,1.052479092e-05
0.0278125,1.134030754e-05
0.02783333333,1.300963504e-05
0.02785416667,8.392657946e-06
0.027875,-2.485116966e-06
0.02789583333,-1.359766156e-05
0.02791666667,-1.672526014e-05
0.0279375,-7.264094165e-06
0.02795833333,1.0946359e-05
0.02797916667,2.658288213e-05
0.028,3.169113916e-05
0.02802083333,2.700639743e-05
0.02804166667,1.547876673e-05
0.0280625,5.681654784e-06
0.02808333333,2.129570021e-06
0.02810416667,3.42428666e-06
0.028125,9.574474461e-06
0.02814583333,1.68428196e-05
0.02816666667,2.503009273e-05
0.0281875,3.057471986e-05
0.02820833333,2.894556383e-05
0.02822916667,1.678742956e-05
0.02825,-3.641349394e-06
0.02827083333,-2.335435784e-05
0.02829166667,-3.184423622e-05
0.0283125,-2.481872434e-05
0.02833333333,-5.711865015e-06
0.02835416667,1.422491732e-05
0.028375,2.847215364e-05
0.02839583333,3.06047732e-05
0.02841666667,2.438127922e-05
0.0284375,1.256962969e-05
0.02845833333,2.487229949e-06
0.02847916667,-3.806309905e-06
0.0285,-3.984437626e-06
0.02852083333,-9.341420082e-08
0.02854166667,4.145054845e-06
0.0285625,5.796302958e-06
0.02858333333,4.813452961e-07
0.02860416667,-1.163477737e-05
0.028625,-2.280026638e-05
0.02864583333,-2.508169928e-05
0.02866666667,-1.567427353e-05
0.0286875,-1.905096042e-06
0.02870833333,3.829750312e-06
0.02872916667,-6.195570677e-06
0.02875,-2.756489266e-05
0.02877083333,-4.18730524e-05
0.02879166667,-4.027409523e-05
0.0288125,-2.06507284e-05
0.02883333333,1.034799425e-06
0.02885416667,7.504387213e-06
0.028875,-6.204350939e-06
0.02889583333,-2.908628812e-05
0.02891666667,-4.337750579e-05
0.0289375,-3.839279816e-05
0.02895833333,-2.136660441e-05
0.02897916667,-1.352295658e-05
0.029,-2.208248225e-05
0.02902083333,-3.485351408e-05
0.02904166667,-3.989421384e-05
0.0290625,-2.403097096e-05
0.02908333333,-2.599553227e-06
0.02910416667,6.020416549e-06
0.029125,-1.428004725e-05
0.02914583333,-4.867970347e-05
0.02916666667,-7.233406359e-05
0.0291875,-6.622145884e-05
0.02920833333,-3.319633834e-05
0.02922916667,-2.900429536e-06
0.02925,1.027923645e-06
0.02927083333,-2.345035318e-05
0.02929166667,-5.618030264e-05
0.0293125,-6.879608554e-05
0.02933333333,-5.700475231e-05
0.02935416667,-3.426428884e-05
0.029375,-3.044962614e-05
0.02939583333,-4.210080806e-05
0.02941666667,-5.139211498e-05
0.0294375,-3.765357542e-05
0.02945833333,-3.108783858e-06
0.02947916667,1.530124064e-05
0.0295,-7.721222573e-06
0.02952083333,-7.518897473e-05
0.02954166667,-0.0001483655069
0.0295625,-0.0001640768751
0.02958333333,-9.377313108e-05
0.02960416667,3.147415919e-05
0.029625,0.000140403441
0.02964583333,0.0001725944603
0.02966666667,0.000119012373
0.0296875,2.084598418e-05
0.02970833333,-5.884916391e-05
0.02972916667,-9.489098738e-05
0.02975,-8.801250078e-05
0.02977083333,-7.447947428e-05
0.02979166667,-5.045395665e-05
0.0298125,-1.193583012e-05
0.02983333333,5.600815712e-05
0.02985416667,0.0001085146141
0.029875,9.067535575e-05
0.02989583333,-2.335167483e-05
0.02991666667,-0.0002099130215
0.0299375,-0.0003661444352
0.02995833333,-0.0003629151906
0.02997916667,-0.000231338141
0.03,0.0002407712745
0.03002083333,0.0003766040318
0.03004166667,0.0003874447139
0.0300625,0.0002303145739
0.03008333333,4.22420635e-05
0.03010416667,-7.614959759e-05
0.030125,-9.464033792e-05
0.03014583333,-4.099345824e-05
0.03016666667,3.025301885e-05
0.0301875,6.992207636e-05
0.03020833333,9.486067574e-05
0.03022916667,0.0001089559955
0.03025,0.0001165068024
0.03027083333,7.751239173e-05
0.03029166667,-1.110575158e-05
0.0303125,-0.000119712211
0.03033333333,-0.0001823845814
0.03035416667,-0.0001461357606
0.030375,-2.358963684e-05
0.03039583333,0.0001213072173
0.03041666667,0.0002023527486
0.0304375,0.0001867164247
0.03045833333,0.0001012742141
0.03047916667,2.266408046e-05
0.0305,-5.065625373e-06
0.03052083333,1.799347592e-05
0.03054166667,5.963262447e-05
0.0305625,7.772750541e-05
0.03058333333,6.821480929e-05
0.03060416667,5.424840492e-05
0.030625,6.066599599e-05
0.03064583333,8.739129407e-05
0.03066666667,0.0001007527389
0.0306875,8.304667426e-05
0.03070833333,4.092063682e-05
0.03072916667,9.451454389e-06
0.03075,1.872706707e-05
0.03077083333,5.707065429e-05
0.03079166667,0.0001044040037
0.0308125,0.0001085872209
0.03083333333,7.86122182e-05
0.03085416667,2.881090768e-05
0.030875,2.241326911e-07
0.03089583333,1.246062675e-05
0.03091666667,3.984929936e-05
0.0309375,6.374274381e-05
0.03095833333,5.810463699e-05
0.03097916667,4.425215593e-05
0.031,3.889237996e-05
0.03102083333,5.4784432e-05
0.03104166667,8.288786194e-05
0.0310625,9.177494212e-05
0.03108333333,6.897842832e-05
0.03110416667,3.262876271e-05
0.031125,7.442747574e-06
0.03114583333,1.571033135e-05
0.03116666667,4.317172352e-05
0.0311875,7.325905608e-05
0.03120833333,7.589330198e-05
0.03122916667,5.910112668e-05
0.03125,3.247610584e-05
0.03127083333,2.169767322e-05
0.03129166667,3.237438068e-05
0.0313125,4.899454143e-05
0.03133333333,5.867845175e-05
0.03135416667,4.906247705e-05
0.031375,3.480019586e-05
0.03139583333,2.286993004e-05
0.03141666667,2.670608774e-05
0.0314375,3.731520701e-05
0.03145833333,4.755324699e-05
0.03147916667,4.735504626e-05
0.0315,4.025999442e-05
0.03152083333,2.192353168e-05
0.03154166667,1.355352651e-06
0.0315625,-2.260949623e-05
0.03158333333,-3.253303294e-05
0.03160416667,-2.385607331e-05
0.031625,8.559083653e-06
0.03164583333,5.30225916e-05
0.03166666667,9.112581756e-05
0.0316875,0.0001069649152
0.03170833333,8.747503307e-05
0.03172916667,4.776733113e-05
0.03175,9.381497875e-06
0.03177083333,-1.064917888e-05
0.03179166667,-9.745543139e-06
0.0318125,7.22492814e-06
0.03183333333,1.925644028e-05
0.03185416667,3.296236537e-05
0.031875,3.703566108e-05
0.03189583333,3.610947897e-05
0.03191666667,2.47408916e-05
0.0319375,7.423864645e-06
0.03195833333,-1.62279357e-05
0.03197916667,-2.57740594e-05
0.032,-1.391654769e-05
0.03202083333,2.01964649e-05
0.03204166667,6.104635395e-05
0.0320625,8.335211896e-05
0.03208333333,7.968912541e-05
0.03210416667,5.471544864e-05
0.032125,3.490821473e-05
0.03214583333,2.070665323e-05
0.03216666667,2.846232019e-05
0.0321875,2.896922342e-05
0.03220833333,2.690539441e-05
0.03222916667,8.320793313e-06
0.03225,-3.854862371e-06
0.03227083333,-9.715358829e-06
0.03229166667,-2.85461374e-06
0.0323125,7.668501894e-06
0.03233333333,1.3551542e-05
0.03235416667,7.659536095e-06
0.032375,-2.004955604e-06
0.03239583333,-7.173776794e-06
0.03241666667,2.764936653e-07
0.0324375,1.563274054e-05
0.03245833333,2.851080353e-05
0.03247916667,3.651982115e-05
0.0325,4.002712012e-05
0.03252083333,4.840505062e-05
0.03254166667,5.662852709e-05
0.0325625,6.83771359e-05
0.03258333333,7.173710037e-05
0.03260416667,6.187284453e-05
0.032625,4.434306175e-05
0.03264583333,2.637516445e-05
0.03266666667,1.466003596e-05
0.0326875,1.069255632e-05
0.03270833333,1.57827053e-05
0.03272916667,1.656960194e-05
0.03275,2.26993634e-05
0.03277083333,2.034357021e-05
0.03279166667,1.9885867e-05
0.0328125,8.189881555e-06
0.03283333333,1.029069153e-06
0.03285416667,-3.729950549e-06
0.032875,3.809668669e-06
0.03289583333,1.839633842e-05
0.03291666667,4.212627027e-05
0.0329375,5.205366324e-05
0.03295833333,5.448616503e-05
0.03297916667,4.321036249e-05
0.033,3.285920684e-05
0.03302083333,2.554725143e-05
0.03304166667,2.69460179e-05
0.0330625,2.560227585e-05
0.03308333333,2.097298784e-05
0.03310416667,1.771566895e-05
0.033125,1.519052876e-05
0.03314583333,2.662936095e-05
0.03316666667,3.418846609e-05
0.0331875,4.528300633e-05
0.03320833333,3.998205648e-05
0.03322916667,3.403537266e-05
0.03325,2.132485679e-05
0.03327083333,2.686781227e-05
0.03329166667,3.850267967e-05
0.0333125,5.241051986e-05
0.03333333333,5.598923599e-05
0.03335416667,4.737341806e-05
0.033375,3.22050073e-05
0.03339583333,2.285639857e-05
0.03341666667,2.110054993e-05
0.0334375,2.094488991e-05
0.03345833333,2.703334758e-05
0.03347916667,1.841544872e-05
0.0335,1.286091538e-05
0.03352083333,3.727909643e-07
0.03354166667,1.194070683e-05
0.0335625,9.998726455e-06
0.03358333333,2.553790546e-05
0.03360416667,1.601541589e-05
0.033625,1.608866296e-05
0.03364583333,7.138078672e-06
0.03366666667,1.34540287e-05
0.0336875,2.464913632e-05
0.03370833333,4.135349081e-05
0.03372916667,4.742517922e-05
0.03375,4.773245018e-05
0.03377083333,4.508491111e-05
0.03379166667,4.003266076e-05
0.0338125,4.712899681e-05
0.03383333333,4.694872041e-05
0.03385416667,4.784261182e-05
0.033875,2.762470649e-05
0.03389583333,1.458821498e-05
0.03391666667,-6.036449122e-06
0.0339375,-7.347870451e-06
0.03395833333,-8.693621567e-06
0.03397916667,1.118906766e-06
0.034,-1.182669621e-06
0.03402083333,-2.257390406e-06
0.03404166667,-1.140706081e-05
0.0340625,-2.798272908e-05
0.03408333333,-3.301835386e-05
0.03410416667,-3.178149927e-05
0.034125,-9.697942005e-06
0.03414583333,1.454536323e-05
0.03416666667,4.259789421e-05
0.0341875,5.67834104e-05
0.03420833333,6.407852925e-05
0.03422916667,4.698084376e-05
0.03425,3.082605326e-05
0.03427083333,5.347428669e-06
0.03429166667,-1.611301514e-06
0.0343125,-1.165284175e-05
0.03433333333,-8.645238267e-06
0.03435416667,-1.016564966e-05
0.034375,-4.125524811e-06
0.03439583333,-3.9852589e-06
0.03441666667,-5.852939921e-06
0.0344375,-1.50688802e-05
0.03445833333,-2.389500696e-05
0.03447916667,-2.824206058e-05
0.0345,-3.009279499e-05
0.03452083333,-1.754602636e-05
0.03454166667,-6.344350822e-06
0.0345625,1.290614455e-05
0.03458333333,2.189220504e-05
0.03460416667,3.160569031e-05
0.034625,3.120822294e-05
0.03464583333,2.489670987e-05
0.03466666667,5.031416549e-06
0.0346875,-7.541457308e-07
0.03470833333,-1.688013617e-05
0.03472916667,-2.146804218e-05
0.03475,-3.227273555e-05
0.03477083333,-2.760352436e-05
0.03479166667,-2.591165321e-05
0.0348125,-1.758483086e-05
0.03483333333,-1.605214857e-05
0.03485416667,-1.572176552e-05
0.034875,-1.579904529e-05
0.03489583333,-1.968895231e-05
0.03491666667,-1.195779259e-05
0.0349375,-1.551286186e-05
0.03495833333,-4.193469067e-06
0.03497916667,-1.516261364e-06
0.035,1.695001265e-05
0.03502083333,2.517333996e-05
0.03504166667,4.716859985e-05
0.0350625,4.851863559e-05
0.03508333333,4.519753929e-05
0.03510416667,3.093685154e-05
0.035125,1.580222488e-05
0.03514583333,7.710163118e-06
0.03516666667,7.416946573e-06
0.0351875,9.689163562e-06
0.03520833333,1.049515049e-05
0.03522916667,7.353572073e-06
0.03525,-1.366359356e-06
0.03527083333,2.428011612e-06
0.03529166667,-3.820793154e-06
0.0353125,2.329664767e-06
0.03533333333,-4.043276931e-06
0.03535416667,-5.373479325e-06
0.035375,-1.469300059e-05
0.03539583333,-3.26325835e-06
0.03541666667,7.206104783e-06
0.0354375,2.83296813e-05
0.03545833333,3.950729297e-05
0.03547916667,4.3955195e-05
0.0355,3.300401295e-05
0.03552083333,2.616177335e-05
0.03554166667,2.426106948e-05
0.0355625,2.506390592e-05
0.03558333333,2.861173925e-05
0.03560416667,2.597458297e-05
0.035625,3.009055217e-05
0.03564583333,2.859130836e-05
0.03566666667,2.961091377e-05
0.0356875,2.459956522e-05
0.03570833333,2.322429464e-05
0.03572916667,1.138408788e-05
0.03575,7.497348179e-06
0.03577083333,-1.656368113e-06
0.03579166667,9.164730727e-06
0.0358125,7.203078894e-06
0.03583333333,1.552281719e-05
0.03585416667,9.766466974e-06
0.035875,7.086067853e-06
0.03589583333,8.529507795e-06
0.03591666667,7.328413631e-06
0.0359375,1.284670634e-05
0.03595833333,1.040757343e-05
0.03597916667,6.598677828e-06
0.036,-6.382193533e-06
0.03602083333,-1.582520053e-05
0.03604166667,-2.01915027e-05
0.0360625,-1.453116238e-05
0.03608333333,-1.677510227e-05
0.03610416667,-1.635183071e-05
0.036125,-2.179326839e-05
0.03614583333,-2.369434878e-05
0.03616666667,-2.423480146e-05
0.0361875,-1.593771594e-05
0.03620833333,-1.1959517e-05
0.03622916667,-1.06353873e-05
0.03625,-2.036225851e-05
0.03627083333,-2.126306572e-05
0.03629166667,-2.472311098e-05
0.0363125,-1.90449482e-05
0.03633333333,-1.866487764e-05
0.03635416667,-3.181387729e-05
0.036375,-4.513427848e-05
0.03639583333,-6.897802814e-05
0.03641666667,-7.752454258e-05
0.0364375,-8.272176638e-05
0.03645833333,-7.104262477e-05
0.03647916667,-7.143680705e-05
0.0365,-7.17359726e-05
0.03652083333,-8.749347762e-05
0.03654166667,-9.960311581e-05
0.0365625,-0.0001061691655
0.03658333333,-9.942476754e-05
0.03660416667,-8.233149856e-05
0.036625,-5.928647806e-05
0.03664583333,-4.492938024e-05
0.03666666667,-3.439243665e-05
0.0366875,-3.977600863e-05
0.03670833333,-5.805609908e-05
0.03672916667,-7.498791092e-05
0.03675,-9.915906412e-05
0.03677083333,-0.0001065708348
0.03679166667,-0.0001005408849
0.0368125,-8.380736836e-05
0.03683333333,-7.025926607e-05
0.03685416667,-6.484220648e-05
0.036875,-7.021577767e-05
0.03689583333,-9.045598563e-05
0.03691666667,-0.0001110995508
0.0369375,-0.0001265055325
0.03695833333,-0.0001330317609
0.03697916667,-0.0001239905832
0.037,-0.00010771292
0.03702083333,-8.322168287e-05
0.03704166667,-6.198181654e-05
0.0370625,-5.408175639e-05
0.03708333333,-6.634419697e-05
0.03710416667,-9.075516573e-05
0.037125,-0.0001146758368
0.03714583333,-0.0001334182452
0.03716666667,-0.000121280842
0.0371875,-0.0001017861359
0.03720833333,-6.616088649e-05
0.03722916667,-4.943861131e-05
0.03725,-4.840994006e-05
0.03727083333,-7.345226913e-05
0.03729166667,-9.728480654e-05
0.0373125,-0.0001205147419
0.03733333333,-0.0001207185851
0.03735416667,-0.0001156532962
0.037375,-0.0001007963292
0.03739583333,-8.3578474e-05
0.03741666667,-6.658137136e-05
0.0374375,-5.61833549e-05
0.03745833333,-5.153110033e-05
0.03747916667,-5.662028343e-05
0.0375,-7.685254968e-05
0.03752083333,-9.735952335e-05
0.03754166667,-0.0001057885529
0.0375625,-8.97947466e-05
0.03758333333,-6.021108493e-05
0.03760416667,-2.363119711e-05
0.037625,-1.189541581e-05
0.03764583333,-2.609875082e-05
0.03766666667,-6.660385407e-05
0.0376875,-0.000109856177
0.03770833333,-0.0001394973951
0.03772916667,-0.0001366551733
0.03775,-0.000115284769
0.03777083333,-8.283785428e-05
0.03779166667,-5.728810356e-05
0.0378125,-4.454427472e-05
0.03783333333,-4.884181544e-05
0.03785416667,-5.310777487e-05
0.037875,-5.863053229e-05
0.03789583333,-6.814399967e-05
0.03791666667,-6.228566781e-05
0.0379375,-7.23966732e-05
0.03795833333,-6.215131725e-05
0.03797916667,-5.619420335e-05
0.038,-3.98842858e-05
0.03802083333,-3.140124682e-05
0.03804166667,-3.078170994e-05
0.0380625,-4.69057195e-05
0.03808333333,-7.282715524e-05
0.03810416667,-9.870144277e-05
0.038125,-0.0001080242509
0.03814583333,-9.760998364e-05
0.03816666667,-7.228787581e-05
0.0381875,-4.711935981e-05
0.03820833333,-2.839220542e-05
0.03822916667,-2.257672895e-05
0.03825,-2.105653766e-05
0.03827083333,-2.336323269e-05
0.03829166667,-2.515653978e-05
0.0383125,-2.359147038e-05
0.03833333333,-3.322029079e-05
0.03835416667,-3.598192779e-05
0.038375,-4.788475417e-05
0.03839583333,-5.135663741e-05
0.03841666667,-4.784675548e-05
0.0384375,-4.083477688e-05
0.03845833333,-3.634609311e-05
0.03847916667,-3.620231291e-05
0.0385,-4.526406701e-05
0.03852083333,-5.338625124e-05
0.03854166667,-5.896014773e-05
0.0385625,-5.285887892e-05
0.03858333333,-3.783938155e-05
0.03860416667,-2.711519664e-05
0.038625,-1.490084833e-05
0.03864583333,-1.244064515e-05
0.03866666667,-1.1778513e-05
0.0386875,-1.127420182e-05
0.03870833333,2.284612492e-06
0.03872916667,8.486451406e-06
0.03875,2.015330756e-05
0.03877083333,2.131642395e-05
0.03879166667,1.321418495e-05
0.0388125,2.740345735e-06
0.03883333333,-1.180598156e-05
0.03885416667,-1.796595097e-05
0.038875,-2.441499237e-05
0.03889583333,-3.574045695e-05
0.03891666667,-4.762303797e-05
0.0389375,-5.428288569e-05
0.03895833333,-6.02508735e-05
0.03897916667,-5.414962288e-05
0.039,-5.504753062e-05
0.03902083333,-5.463769048e-05
0.03904166667,-6.407442561e-05
0.0390625,-7.186505536e-05
0.03908333333,-7.216184167e-05
0.03910416667,-6.363586726e-05
0.039125,-4.324937981e-05
0.03914583333,-2.148839485e-05
0.03916666667,-1.143273403e-05
0.0391875,-7.591861504e-06
0.03920833333,-1.479202001e-05
0.03922916667,-1.909989624e-05
0.03925,-2.699147808e-05
0.03927083333,-4.261259892e-05
0.03929166667,-6.119554018e-05
0.0393125,-8.64161193e-05
0.03933333333,-9.057146963e-05
0.03935416667,-9.509155643e-05
0.039375,-8.732263086e-05
0.03939583333,-8.543349395e-05
0.03941666667,-9.675929323e-05
0.0394375,-0.0001106637937
0.03945833333,-0.0001232410432
0.03947916667,-0.000134805392
0.0395,-0.0001273306261
0.03952083333,-0.0001267733023
0.03954166667,-0.0001227861212
0.0395625,-0.0001222143183
0.03958333333,-0.0001313592948
0.03960416667,-0.0001251665817
0.039625,-0.0001175024081
0.03964583333,-0.0001088875433
0.03966666667,-0.0001117688444
0.0396875,-0.000113432412
0.03970833333,-0.0001304299076
0.03972916667,-0.0001255770767
0.03975,-0.000131012901
0.03977083333,-0.0001231473434
0.03979166667,-0.0001225093729
0.0398125,-0.0001272070949
0.03983333333,-0.0001320023148
0.03985416667,-0.000144717822
0.039875,-0.0001494546304
0.03989583333,-0.0001519933867
0.03991666667,-0.0001453982986
0.0399375,-0.0001549827575
0.03995833333,-0.0001553741022
0.03997916667,-0.0001709852513
0.04,-0.0001671925856
0.04002083333,-0.0001643077849
0.04004166667,-0.0001476400066
0.0400625,-0.0001414630242
0.04008333333,-0.0001325177727
0.04010416667,-0.0001313874964
0.040125,-0.0001307523489
0.04014583333,-0.0001378597808
0.04016666667,-0.0001352113177
0.0401875,-0.0001395984145
0.04020833333,-0.000145480808
0.04022916667,-0.0001522361272
0.04025,-0.0001611443586
0.04027083333,-0.0001578612282
0.04029166667,-0.00015916345
0.0403125,-0.0001426787494
0.04033333333,-0.0001364424243
0.04035416667,-0.0001284999016
0.040375,-0.0001225554879
0.04039583333,-0.0001232057548
0.04041666667,-0.0001253380615
0.0404375,-0.0001145352217
0.04045833333,-0.0001170876931
0.04047916667,-0.0001105164556
0.0405,-0.0001125957497
0.04052083333,-0.0001174848076
0.04054166667,-0.0001339547598
0.0405625,-0.0001533062314
0.04058333333,-0.0001688956254
0.04060416667,-0.0001845865336
0.040625,-0.0001832787675
0.04064583333,-0.0001824202627
0.04066666667,-0.0001687953627
0.0406875,-0.0001697272237
0.04070833333,-0.0001549065637
0.04072916667,-0.0001617777743
0.04075,-0.000156428825
0.04077083333,-0.0001570064051
0.04079166667,-0.0001518678473
0.0408125,-0.0001505122927
0.04083333333,-0.0001500921207
0.04085416667,-0.000149629821
0.040875,-0.0001506435656
0.04089583333,-0.0001604050194
0.04091666667,-0.0001753416291
0.0409375,-0.0001944955729
0.04095833333,-0.0002207164507
0.04097916667,-0.0002293845901
0.041,-0.0002340868086
0.04102083333,-0.0002254296123
0.04104166667,-0.0002226991055
0.0410625,-0.0002092335926
0.04108333333,-0.0002206199424
0.04110416667,-0.0002185062476
0.041125,-0.0002243348717
0.04114583333,-0.0002222939511
0.04116666667,-0.0002157204435
0.0411875,-0.0002177410643
0.04120833333,-0.0002176628623
0.04122916667,-0.0002159911965
0.04125,-0.000226378339
0.04127083333,-0.0002352407319
0.04129166667,-0.0002430818713
0.0413125,-0.0002508203324
0.04133333333,-0.0002547634067
0.04135416667,-0.0002582957386
0.041375,-0.0002672185365
0.04139583333,-0.0002777322661
0.04141666667,-0.0002784042154
0.0414375,-0.0002932792413
0.04145833333,-0.0002839457011
0.04147916667,-0.0002898456878
0.0415,-0.0002757000038
0.04152083333,-0.0002757368202
0.04154166667,-0.0002781322983
0.0415625,-0.000280464883
0.04158333333,-0.0002817718487
0.04160416667,-0.0002804544929
0.041625,-0.0002699051693
0.04164583333,-0.0002586009796
0.04166666667,-0.0002501695999
0.0416875,-0.0002352075535
0.04170833333,-0.0002338546765
0.04172916667,-0.0002213947009
0.04175,-0.0002209384838
0.04177083333,-0.0002176899579
0.04179166667,-0.0002262859634
0.0418125,-0.0002220014721
0.04183333333,-0.0002274455328
0.04185416667,-0.000217865876
0.041875,-0.0002214052365
0.04189583333,-0.0002136287221
0.04191666667,-0.0002273870341
0.0419375,-0.0002442929836
0.04195833333,-0.0002541946888
0.04197916667,-0.0002599337022
0.042,-0.0002422074613
0.04202083333,-0.0002241753828
0.04204166667,-0.0001972538594
0.0420625,-0.0001937395136
0.04208333333,-0.0001955724729
0.04210416667,-0.0002057018573
0.042125,-0.0002029528114
0.04214583333,-0.0001990785968
0.04216666667,-0.0001831517002
0.0421875,-0.0001701475558
0.04220833333,-0.0001580254611
0.04222916667,-0.0001562984689
0.04225,-0.0001515390468
0.04227083333,-0.0001505273685
0.04229166667,-0.0001631485648
0.0423125,-0.0001725919719
0.04233333333,-0.0001863014331
0.04235416667,-0.0001886857499
0.042375,-0.0001871066925
0.04239583333,-0.0001653661748
0.04241666667,-0.0001590845641
0.0424375,-0.000151006956
0.04245833333,-0.0001610548061
0.04247916667,-0.0001738975989
0.0425,-0.0001849378314
0.04252083333,-0.0001853550639
0.04254166667,-0.0001863468206
0.0425625,-0.0001787115907
0.04258333333,-0.0001803556224
0.04260416667,-0.0001760920131
0.042625,-0.0001796881697
0.04264583333,-0.000182318603
0.04266666667,-0.0001773705153
0.0426875,-0.0001832768903
0.04270833333,-0.000183612312
0.04272916667,-0.0001923998352
0.04275,-0.0001858123142
0.04277083333,-0.0001849987166
0.04279166667,-0.0001727838535
0.0428125,-0.0001761501189
0.04283333333,-0.0001672604558
0.04285416667,-0.0001784072956
0.042875,-0.0001786668436
0.04289583333,-0.000175424153
0.04291666667,-0.0001568584412
0.0429375,-0.0001577916264
0.04295833333,-0.0001549653098
0.04297916667,-0.0001589748863
0.043,-0.0001787597284
0.04302083333,-0.0001852955756
0.04304166667,-0.0001882244833
0.0430625,-0.0001796771539
0.04308333333,-0.0001823755447
0.04310416667,-0.0001737379644
0.043125,-0.0001689233031
0.04314583333,-0.0001450333802
0.04316666667,-0.0001253346854
0.0431875,-9.678624338e-05
0.04320833333,-8.775699825e-05
0.04322916667,-7.453524449e-05
0.04325,-8.488721505e-05
0.04327083333,-8.293619612e-05
0.04329166667,-7.959230425e-05
0.0433125,-5.551626964e-05
0.04333333333,-3.79585872e-05
0.04335416667,-3.060012023e-05
0.043375,-3.358033064e-05
0.04339583333,-4.398636156e-05
0.04341666667,-5.128300472e-05
0.0434375,-5.824464461e-05
0.04345833333,-4.079412975e-05
0.04347916667,-3.509486851e-05
0.0435,-1.450382479e-05
0.04352083333,-1.20329114e-05
0.04354166667,1.292945763e-05
0.0435625,3.074235428e-05
0.04358333333,6.566637603e-05
0.04360416667,9.204620437e-05
0.043625,0.0001302188757
0.04364583333,0.0001435888989
0.04366666667,0.0001568112784
0.0436875,0.0001608994935
0.04370833333,0.0001672015351
0.04372916667,0.0001776049612
0.04375,0.0001766469068
0.04377083333,0.0001780381572
0.04379166667,0.0001642018033
0.0438125,0.000164202851
0.04383333333,0.0001534135808
0.04385416667,0.0001656651439
0.043875,0.0001576970972
0.04389583333,0.0001744109904
0.04391666667,0.000146655264
0.0439375,0.0001476430916
0.04395833333,0.000120819197
0.04397916667,0.000124346072
0.044,0.0001382853079
0.04402083333,0.00016432759
0.04404166667,0.0002035409707
0.0440625,0.0002262731286
0.04408333333,0.0002386671986
0.04410416667,0.0002394313924
0.044125,0.0002389294532
0.04414583333,0.0002311295248
0.04416666667,0.0002314295998
0.0441875,0.0002229235688
0.04420833333,0.0002242694754
0.04422916667,0.0002237280423
0.04425,0.000235747124
0.04427083333,0.0002340184874
0.04429166667,0.000231741069
0.0443125,0.000199962873
0.04433333333,0.0001725328621
0.04435416667,0.0001372286351
0.044375,0.0001229366317
0.04439583333,0.0001146671348
0.04441666667,0.0001158483501
0.0444375,0.0001123414622
0.04445833333,0.0001008148975
0.04447916667,9.409782069e-05
0.0445,8.809742576e-05
0.04452083333,9.265358676e-05
0.04454166667,8.863378753e-05
0.0445625,8.257818263e-05
0.04458333333,5.559375495e-05
0.04460416667,3.759282481e-05
0.044625,1.730920849e-05
0.04464583333,2.602153472e-05
0.04466666667,3.068973092e-05
0.0446875,4.357681973e-05
0.04470833333,1.876981878e-05
0.04472916667,-7.642452147e-06
0.04475,-5.177253843e-05
0.04477083333,-6.498427683e-05
0.04479166667,-6.939494779e-05
0.0448125,-6.297611253e-05
0.04483333333,-6.602668873e-05
0.04485416667,-8.050536417e-05
0.044875,-0.0001001600831
0.04489583333,-0.0001201690466
0.04491666667,-0.0001263403828
0.0449375,-0.000135892391
0.04495833333,-0.0001463377848
0.04497916667,-0.0001768405637
0.045,-0.0002076168748
0.04502083333,-0.000233697283
0.04504166667,-0.0002370433795
0.0450625,-0.0002340958454
0.04508333333,-0.0002267537202
0.04510416667,-0.0002384202235
0.045125,-0.0002595684491
0.04514583333,-0.000285426242
0.04516666667,-0.000293475081
0.0451875,-0.0002909992472
0.04520833333,-0.0002670601534
0.04522916667,-0.0002610810625
0.04525,-0.0002581586596
0.04527083333,-0.0002533504739
0.04529166667,-0.0002725962549
0.0453125,-0.0002716956369
0.04533333333,-0.0002867295407
0.04535416667,-0.0002864683629
0.045375,-0.0003030071675
0.04539583333,-0.0002970405039
0.04541666667,-0.0002962282451
0.0454375,-0.0002797109191
0.04545833333,-0.0002708828833
0.04547916667,-0.0002581749577
0.0455,-0.0002639597806
0.04552083333,-0.0002601415035
0.04554166667,-0.0002589699288
0.0455625,-0.0002405815467
0.04558333333,-0.0002209584345
0.04560416667,-0.0001952776656
0.045625,-0.0001681018039
0.04564583333,-0.000149778949
0.04566666667,-0.0001256688556
0.0456875,-0.0001051754589
0.04570833333,-6.943024346e-05
0.04572916667,-3.857735646e-05
0.04575,-7.84167878e-06
0.04577083333,1.666079697e-05
0.04579166667,4.114565672e-05
0.0458125,5.414442785e-05
0.04583333333,7.076194015e-05
0.04585416667,9.217302431e-05
0.045875,0.0001125206181
0.04589583333,0.0001398838649
0.04591666667,0.0001658666006
0.0459375,0.0001913952292
0.04595833333,0.0002213341795
0.04597916667,0.000251356716
0.046,0.0002785272954
0.04602083333,0.0002927430032
0.04604166667,0.0003010757791
0.0460625,0.0003228574642
0.04608333333,0.0003390797938
0.04610416667,0.0003803950676
0.046125,0.0004125015985
0.04614583333,0.0004598798405
0.04616666667,0.0004938644124
0.0461875,0.0005253727431
0.04620833333,0.0005376641057
0.04622916667,0.0005431122845
0.04625,0.0005398892681
0.04627083333,0.0005490698386
0.04629166667,0.0005580422585
0.0463125,0.0005763739464
0.04633333333,0.0005966607714
0.04635416667,0.0006171962596
0.046375,0.000633929274
0.04639583333,0.0006400706479
0.04641666667,0.0006355005316
0.0464375,0.0006286451826
0.04645833333,0.0006187991821
0.04647916667,0.0006093934644
0.0465,0.0006030923687
0.04652083333,0.0005964399897
0.04654166667,0.0005984261516
0.0465625,0.0005970115308
0.04658333333,0.0006015156396
0.04660416667,0.0005938413087
0.046625,0.0005853621988
0.04664583333,0.0005713707651
0.04666666667,0.0005558157573
0.0466875,0.00054610183
0.04670833333,0.0005368118873
0.04672916667,0.0005250062095
0.04675,0.0005122185103
0.04677083333,0.0004947327543
0.04679166667,0.0004866385134
0.0468125,0.0004906909307
0.04683333333,0.0004894408048
0.04685416667,0.0004853930441
0.046875,0.0004603414563
0.04689583333,0.000434589223
0.04691666667,0.0003921054304
0.0469375,0.0003606803657
0.04695833333,0.0003355397494
0.04697916667,0.0003204383247
0.047,0.0003046785714
0.04702083333,0.0002921113628
0.04704166667,0.0002807206474
0.0470625,0.0002748843399
0.04708333333,0.0002706728701
0.04710416667,0.0002655670978
0.047125,0.0002534736996
0.04714583333,0.0002376334451
0.04716666667,0.0002127725165
0.0471875,0.00019543909
0.04720833333,0.0001909781859
0.04722916667,0.0001926255936
0.04725,0.0001973449544
0.04727083333,0.0001955765765
0.04729166667,0.0001852506975
0.0473125,0.0001725796319
0.04733333333,0.0001554228656
0.04735416667,0.000143308047
0.047375,0.0001371321268
0.04739583333,0.0001240881393
0.04741666667,0.000117449963
0.0474375,0.0001027877079
0.04745833333,9.488727665e-05
0.04747916667,9.161399066e-05
0.0475,9.236609912e-05
0.04752083333,9.605799278e-05
0.04754166667,9.266738925e-05
0.0475625,8.973640797e-05
0.04758333333,8.411309682e-05
0.04760416667,7.989926962e-05
0.047625,6.892530655e-05
0.04764583333,5.890682223e-05
0.04766666667,4.376496508e-05
0.0476875,3.554682553e-05
0.04770833333,2.877010411e-05
0.04772916667,4.157399962e-05
0.04775,4.866635572e-05
0.04777083333,6.301105896e-05
0.04779166667,5.631143722e-05
0.0478125,4.012618228e-05
0.04783333333,1.279051867e-05
0.04785416667,-9.563846106e-06
0.047875,-2.672365008e-05
0.04789583333,-3.084198033e-05
0.04791666667,-3.914959962e-05
0.0479375,-3.151523197e-05
0.04795833333,-2.612236131e-05
0.04797916667,-2.136755575e-05
0.048,-1.743380562e-05
0.04802083333,-1.69311279e-05
0.04804166667,-2.530293204e-05
0.0480625,-2.836126805e-05
0.04808333333,-2.747985855e-05
0.04810416667,-2.321313877e-05
0.048125,-1.200693077e-06
0.04814583333,2.148263593e-05
0.04816666667,3.817857942e-05
0.0481875,4.74623921e-05
0.04820833333,5.191185483e-05
0.04822916667,5.802817759e-05
0.04825,7.186860603e-05
0.04827083333,7.884413935e-05
0.04829166667,8.944523142e-05
0.0483125,9.54546922e-05
0.04833333333,9.775554645e-05
0.04835416667,0.0001058388516
0.048375,0.0001136767532
0.04839583333,0.0001190945186
0.04841666667,0.0001193860517
0.0484375,0.0001278736454
0.04845833333,0.0001434903534
0.04847916667,0.0001808201196
0.0485,0.0002164431498
0.04852083333,0.0002545169555
0.04854166667,0.0002765053359
0.0485625,0.000292359764
0.04858333333,0.0002914974175
0.04860416667,0.0003009687061
0.048625,0.0003238162899
0.04864583333,0.0003633129527
0.04866666667,0.0004068931448
0.0486875,0.0004461786302
0.04870833333,0.0004819382448
0.04872916667,0.0005155124818
0.04875,0.000537019223
0.04877083333,0.0005622333265
0.04879166667,0.0005681390758
0.0488125,0.0005664119963
0.04883333333,0.0005530709168
0.04885416667,0.0005502050626
0.048875,0.0005708169774
0.04889583333,0.0006030250806
0.04891666667,0.0006345143192
0.0489375,0.0006451929221
0.04895833333,0.0006385722663
0.04897916667,0.0006259965594
0.049,0.0006195518654
0.04902083333,0.00062525057
0.04904166667,0.0006324847345
0.0490625,0.000638340658
0.04908333333,0.0006437784759
0.04910416667,0.0006520412862
0.049125,0.0006693020114
0.04914583333,0.0006863710005
0.04916666667,0.0006992602721
0.0491875,0.0006868006312
0.04920833333,0.0006576526212
0.04922916667,0.0006201073993
0.04925,0.0005906003062
0.04927083333,0.0005923613207
0.04929166667,0.0005881446996
0.0493125,0.0005856740172
0.04933333333,0.0005647075595
0.04935416667,0.0005403172108
0.049375,0.0005131809157
0.04939583333,0.0005003381521
0.04941666667,0.0004808164376
0.0494375,0.0004568396253
0.04945833333,0.0004095481127
0.04947916667,0.0003638136259
0.0495,0.0003356517409
0.04952083333,0.0003320867545
0.04954166667,0.0003413399972
0.0495625,0.0003388102632
0.04958333333,0.0003149318218
0.04960416667,0.0002773441956
0.049625,0.0002273941063
0.04964583333,0.0002108261397
0.04966666667,0.0002090701601
0.0496875,0.0002143378952
0.04970833333,0.0002063018619
0.04972916667,0.0001653621148
0.04975,0.0001295961265
0.04977083333,0.0001011075801
0.04979166667,0.0001003677171
0.0498125,0.0001066866535
0.04983333333,0.0001183260028
0.04985416667,0.0001009654443
0.049875,7.400922186e-05
0.04989583333,5.517905811e-05
0.04991666667,6.176614261e-05
0.0499375,7.423601346e-05
0.04995833333,7.855136209e-05
0.04997916667,5.605835395e-05
0.05,3.483651744e-05
0.05002083333,8.339609849e-06
0.05004166667,4.799087037e-06
0.0500625,2.885811955e-05
0.05008333333,5.390417937e-05
0.05010416667,6.671703159e-05
0.050125,5.568016059e-05
0.05014583333,4.342560351e-05
0.05016666667,2.327360744e-05
0.0501875,3.340125113e-05
0.05020833333,3.12653101e-05
0.05022916667,3.407678741e-05
0.05025,2.119755663e-05
0.05027083333,7.992680366e-06
0.05029166667,6.676262274e-06
0.0503125,2.842676804e-05
0.05033333333,5.909655374e-05
0.05035416667,8.064031863e-05
0.050375,8.232012624e-05
0.05039583333,7.397340232e-05
0.05041666667,6.479668809e-05
0.0504375,7.765547343e-05
0.05045833333,9.579572361e-05
0.05047916667,0.0001149806485
0.0505,0.0001308743231
0.05052083333,0.0001270243665
0.05054166667,0.0001408884127
0.0505625,0.00014758404
0.05058333333,0.0001775407436
0.05060416667,0.0002025446302
0.050625,0.0002297594037
0.05064583333,0.000241853093
0.05066666667,0.0002566845797
0.0506875,0.0002633358818
0.05070833333,0.0002801137452
0.05072916667,0.0002964452142
0.05075,0.0003158709733
0.05077083333,0.0003315071226
0.05079166667,0.0003336339723
0.0508125,0.0003374145308
0.05083333333,0.0003383481235
0.05085416667,0.000343404361
0.050875,0.0003408917692
0.05089583333,0.0003547072993
0.05091666667,0.0003453610407
0.0509375,0.0003505131754
0.05095833333,0.0003482321044
0.05097916667,0.0003634798049
0.051,0.0003760268737
0.05102083333,0.0004016537277
0.05104166667,0.0004158918746
0.0510625,0.0004353408003
0.05108333333,0.0004447090905
0.05110416667,0.0004475232272
0.051125,0.0004360450548
0.05114583333,0.0004385631764
0.05116666667,0.0004490494612
0.0511875,0.000480705261
0.05120833333,0.0005156804109
0.05122916667,0.0005511068157
0.05125,0.0005835293559
0.05127083333,0.0005991134094
0.05129166667,0.0006181161152
0.0513125,0.000620488252
0.05133333333,0.0006226063706
0.05135416667,0.0006213214947
0.051375,0.0006227439735
0.05139583333,0.0006200866774
0.05141666667,0.0006246633129
0.0514375,0.0006310534081
0.05145833333,0.0006505649071
0.05147916667,0.0006500696763
0.0515,0.0006457069539
0.05152083333,0.0006304901326
0.05154166667,0.000618670776
0.0515625,0.0006062839529
0.05158333333,0.0006005620235
0.05160416667,0.0006041078595
0.051625,0.0005956219393
0.05164583333,0.0006020346191
0.05166666667,0.0006011740188
0.0516875,0.000604249828
0.05170833333,0.0005920182448
0.05172916667,0.0005844577681
0.05175,0.0005504777655
0.05177083333,0.0005461843684
0.05179166667,0.0005268214154
0.0518125,0.0005390988663
0.05183333333,0.0005470509641
0.05185416667,0.0005504594883
0.051875,0.0005479715182
0.05189583333,0.0005253132549
0.05191666667,0.0005070501356
0.0519375,0.0004815013672
0.05195833333,0.0004717150296
0.05197916667,0.0004636953236
0.052,0.0004684831365
0.05202083333,0.0004446864768
0.05204166667,0.0004286360054
0.0520625,0.0004072813317
0.05208333333,0.0004064092936
0.05210416667,0.0004046348331
0.052125,0.0003993708233
0.05214583333,0.0003745824506
0.05216666667,0.0003505483619
0.0521875,0.0003362321877
0.05220833333,0.0003377238754
0.05222916667,0.0003472754033
0.05225,0.0003561520425
0.05227083333,0.0003610174463
0.05229166667,0.0003460535081
0.0523125,0.0003322876873
0.05233333333,0.0003004418686
0.05235416667,0.0002932227799
0.052375,0.0002910140902
0.05239583333,0.0002986244799
0.05241666667,0.0003029183135
0.0524375,0.0003187449765
0.05245833333,0.0003214580647
0.05247916667,0.0003221514344
0.0525,0.0003163408837
0.05252083333,0.0003067699727
0.05254166667,0.0003028226783
0.0525625,0.000310337753
0.05258333333,0.000310415111
0.05260416667,0.0003161382338
0.052625,0.0003114440478
0.05264583333,0.0003075044078
0.05266666667,0.0003221190418
0.0526875,0.0003480452579
0.05270833333,0.0003760733525
0.05272916667,0.0003799486149
0.05275,0.0003810382332
0.05277083333,0.0003483570181
0.05279166667,0.0003423065064
0.0528125,0.0003346787125
0.05283333333,0.0003575911396
0.05285416667,0.0003697263601
0.052875,0.0003759370302
0.05289583333,0.0003653292952
0.05291666667,0.0003596519236
0.0529375,0.0003646256519
0.05295833333,0.0003670439764
0.05297916667,0.0003831781796
0.053,0.0003779090766
0.05302083333,0.0003795945668
0.05304166667,0.0003775063669
0.0530625,0.0003701619862
0.05308333333,0.0003960419854
0.05310416667,0.0004061212821
0.053125,0.0003992290585
0.05314583333,0.0004357341095
0.05316666667,0.000419908989
0.0531875,0.0004631164484
0.05320833333,0.0004538207722
0.05322916667,0.0004550525628
0.05325,0.0004696128599
0.05327083333,0.0004681079299
0.05329166667,0.0004775604757
0.0533125,0.0004644917208
0.05333333333,0.0004613141646
0.05335416667,0.000440171425
0.053375,0.0004335832491
0.05339583333,0.0004061164218
0.05341666667,0.0003845363681
0.0534375,0.0003643092641
0.05345833333,0.0003802165156
0.05347916667,0.0003798200923
0.0535,0.0003889967629
0.05352083333,0.0003642580123
0.05354166667,0.000355444965
0.0535625,0.0003390109632
0.05358333333,0.0003431749064
0.05360416667,0.0003269430599
0.053625,0.0003239815996
0.05364583333,0.0002863791306
0.05366666667,0.0002633911499
0.0536875,0.000251188234
0.05370833333,0.0002584191971
0.05372916667,0.0002911309421
0.05375,0.0003012225789
0.05377083333,0.0003122452181
0.05379166667,0.0002827924618
0.0538125,0.000276886858
0.05383333333,0.0002511878847
0.05385416667,0.000241579779
0.053875,0.0002227936056
0.05389583333,0.0002183406614
0.05391666667,0.000183918688
0.0539375,0.0001673082879
0.05395833333,0.0001383680938
0.05397916667,0.0001428670803
0.054,0.0001247399196
0.05402083333,0.000129267748
0.05404166667,0.0001124557893
0.0540625,9.94764996e-05
0.05408333333,7.441019261e-05
0.05410416667,3.210081923e-05
0.054125,4.770331725e-05
0.05414583333,8.310853445e-06
0.05416666667,-1.871288259e-05
0.0541875,-7.289802306e-05
0.05420833333,-9.156629676e-05
0.05422916667,-0.0001067755948
0.05425,-9.93199501e-05
0.05427083333,-0.0001182848864
0.05429166667,-0.000113424845
0.0543125,-0.0001248075132
0.05433333333,-0.00012191305
0.05435416667,-0.0001161099426
0.054375,-0.0001187448142
0.05439583333,-0.000134748756
0.05441666667,-0.0001400514739
0.0544375,-0.0001801002363
0.05445833333,-0.0002023000125
0.05447916667,-0.0002084917796
0.0545,-0.0001930484868
0.05452083333,-0.0001536413911
0.05454166667,-0.0001269971981
0.0545625,-0.0001174292265
0.05458333333,-0.0001252752845
0.05460416667,-0.0001164986024
0.054625,-0.0001321936579
0.05464583333,-0.0001038288901
0.05466666667,-0.0001077410998
0.0546875,-9.721002425e-05
0.05470833333,-0.0001116648054
0.05472916667,-0.0001048675913
0.05475,-9.917386342e-05
0.05477083333,-6.779729301e-05
0.05479166667,-4.375880599e-05
0.0548125,2.791552106e-06
0.05483333333,1.622734999e-05
0.05485416667,2.228813901e-05
0.054875,2.652539115e-05
0.05489583333,1.784225969e-05
0.05491666667,3.965842188e-05
0.0549375,2.939282786e-05
0.05495833333,5.843170948e-05
0.05497916667,5.279708421e-05
0.055,9.031207446e-05
0.05502083333,8.048472955e-05
0.05504166667,0.0001178578386
0.0550625,0.000125792998
0.05508333333,0.0001593987836
0.05510416667,0.0001473746815
0.055125,0.0001294090325
0.05514583333,0.0001245546591
0.05516666667,0.0001360916649
0.0551875,0.0001657785033
0.05520833333,0.0001957162458
0.05522916667,0.0001896893373
0.05525,0.0002078497346
0.05527083333,0.0001969519799
0.05529166667,0.0001937473717
0.0553125,0.0002192293905
0.05533333333,0.0001931276638
0.05535416667,0.0002083923464
0.055375,0.0001775616547
0.05539583333,0.0001701142173
0.05541666667,0.0001418407774
0.0554375,0.0001318333234
0.05545833333,0.0001138760927
0.05547916667,0.0001268499618
0.0555,0.0001135087805
0.05552083333,9.798268729e-05
0.05554166667,5.242687621e-05
0.0555625,2.082890205e-05
0.05558333333,1.618487113e-05
0.05560416667,-1.910551873e-06
0.055625,-1.205564331e-06
0.05564583333,-4.078457278e-05
0.05566666667,-7.963042299e-05
0.0556875,-0.0001207019086
0.05570833333,-0.0001360493479
0.05572916667,-0.0001591361943
0.05575,-0.0001375833817
0.05577083333,-0.0001446829701
0.05579166667,-0.0001661747374
0.0558125,-0.0002262748749
0.05583333333,-0.0002863351547
0.05585416667,-0.0003153010912
0.055875,-0.0003564914514
0.05589583333,-0.0003695073538
0.05591666667,-0.0003942762851
0.0559375,-0.0004342490574
0.05595833333,-0.0004449778935
0.05597916667,-0.0004819684837
0.056,-0.0004819470632
0.05602083333,-0.0004906738177
0.05604166667,-0.0005087673781
0.0560625,-0.0005270865513
0.05608333333,-0.0005595834227
0.05610416667,-0.000557230378
0.056125,-0.0006032565143
0.05614583333,-0.0006036260165
0.05616666667,-0.0006256772904
0.0561875,-0.0006210891297
0.05620833333,-0.0006175807212
0.05622916667,-0.0006204225356
0.05625,-0.0006076678983
0.05627083333,-0.000593255274
0.05629166667,-0.0005790616851
0.0563125,-0.0005925004371
0.05633333333,-0.000576682156
0.05635416667,-0.0005599771393
0.056375,-0.000556059822
0.05639583333,-0.0005454284837
0.05641666667,-0.00056714518
0.0564375,-0.000582525041
0.05645833333,-0.0005753416335
0.05647916667,-0.0005794932367
0.0565,-0.0005395865301
0.05652083333,-0.0005318504409
0.05654166667,-0.0005237559089
0.0565625,-0.0005161821027
0.05658333333,-0.0005162322777
0.05660416667,-0.0005101886927
0.056625,-0.0004837479792
0.05664583333,-0.0004659389379
0.05666666667,-0.0004627577146
0.0566875,-0.0004724165774
0.05670833333,-0.0004886440584
0.05672916667,-0.000504905358
0.05675,-0.0004918008344
0.05677083333,-0.0004747905477
0.05679166667,-0.0004478435148
0.0568125,-0.0004259067355
0.05683333333,-0.0004258107801
0.05685416667,-0.0003992935526
0.056875,-0.0003997237654
0.05689583333,-0.00038954505
0.05691666667,-0.0004010107659
0.0569375,-0.0004090228176
0.05695833333,-0.0004284609458
0.05697916667,-0.0004254516098
0.057,-0.0004385408247
0.05702083333,-0.0004111475428
0.05704166667,-0.0003926736536
0.0570625,-0.0003834962263
0.05708333333,-0.0003658207133
0.05710416667,-0.0003631045402
0.057125,-0.0003358824179
0.05714583333,-0.000330336683
0.05716666667,-0.0003637160989
0.0571875,-0.0003742261324
0.05720833333,-0.000394596078
0.05722916667,-0.0004127424327
0.05725,-0.000397848693
0.05727083333,-0.0003953105188
0.05729166667,-0.0003582476347
0.0573125,-0.0003606576647
0.05733333333,-0.0003568089451
0.05735416667,-0.0003809761256
0.057375,-0.0003827969776
0.05739583333,-0.0003629450512
0.05741666667,-0.0003701247042
0.0574375,-0.0003705538693
0.05745833333,-0.0003952776897
0.05747916667,-0.0004273283412
0.0575,-0.0004698184785
0.05752083333,-0.0004734946706
0.05754166667,-0.0004779341107
0.0575625,-0.0004520825751
0.05758333333,-0.0004494575842
0.05760416667,-0.0004506364639
0.057625,-0.000450972002
0.05764583333,-0.0004730862274
0.05766666667,-0.0004925564863
0.0576875,-0.0005029499298
0.05770833333,-0.000523729308
0.05772916667,-0.0005059501273
0.05775,-0.0005249294918
0.05777083333,-0.0005340368371
0.05779166667,-0.0005068513565
0.0578125,-0.0005196637358
0.05783333333,-0.0004902115325
0.05785416667,-0.0004920040956
0.057875,-0.0004922462394
0.05789583333,-0.0004975805641
0.05791666667,-0.0005209414521
0.0579375,-0.0005552629009
0.05795833333,-0.0005776499747
0.05797916667,-0.0006005187752
0.058,-0.0006163172075
0.05802083333,-0.0006264279946
0.05804166667,-0.0006386566674
0.0580625,-0.0006635474274
0.05808333333,-0.0006626396207
0.05810416667,-0.0006607124815
0.058125,-0.0006586536765
0.05814583333,-0.0006631440483
0.05816666667,-0.0006870072102
0.0581875,-0.000728953979
0.05820833333,-0.0007628450985
0.05822916667,-0.0007685605669
0.05825,-0.000783415162
0.05827083333,-0.0007793954574
0.05829166667,-0.0007991255261
0.0583125,-0.0008022637921
0.05833333333,-0.0008334440645
0.05835416667,-0.0008440590464
0.058375,-0.0008661812171
0.05839583333,-0.0008730324917
0.05841666667,-0.0008554580854
0.0584375,-0.0008775203023
0.05845833333,-0.0008967423928
0.05847916667,-0.0009165228112
0.0585,-0.0009466523188
0.05852083333,-0.0009546786314
0.05854166667,-0.0009881088044
0.0585625,-0.001002535457
0.05858333333,-0.001030085958
0.05860416667,-0.001068216749
0.058625,-0.00107184099
0.05864583333,-0.001100027468
0.05866666667,-0.001074231463
0.0586875,-0.001074230066
0.05870833333,-0.001053503715
0.05872916667,-0.001065429067
0.05875,-0.001079669571
0.05877083333,-0.001105023548
0.05879166667,-0.001127673546
0.0588125,-0.001123001915
0.05883333333,-0.001156074111
0.05885416667,-0.001186134294
0.058875,-0.001196394791
0.05889583333,-0.001215524739
0.05891666667,-0.001201952808
0.0589375,-0.001177817816
0.05895833333,-0.001163347624
0.05897916667,-0.001138882246
0.059,-0.001141305082
0.05902083333,-0.001130326185
0.05904166667,-0.00114383176
0.0590625,-0.001152298879
0.05908333333,-0.001164379762
0.05910416667,-0.001196083147
0.059125,-0.001194416895
0.05914583333,-0.001206947025
0.05916666667,-0.001236091135
0.0591875,-0.00120845146
0.05920833333,-0.001218265272
0.05922916667,-0.001199066406
0.05925,-0.001183727058
0.05927083333,-0.001175573096
0.05929166667,-0.001166191185
0.0593125,-0.001197528676
0.05933333333,-0.001216038596
0.05935416667,-0.001244181767
0.059375,-0.001244647312
0.05939583333,-0.001248789718
0.05941666667,-0.001244885381
0.0594375,-0.00125780399
0.05945833333,-0.001256663119
0.05947916667,-0.001259404351
0.0595,-0.001258202479
0.05952083333,-0.001265388797
0.05954166667,-0.001270311652
0.0595625,-0.001289573032
0.05958333333,-0.001281497767
0.05960416667,-0.001289199805
0.059625,-0.00129858742
0.05964583333,-0.00131482468
0.05966666667,-0.001318635885
0.0596875,-0.001328087412
0.05970833333,-0.001336495392
0.05972916667,-0.001350182807
0.05975,-0.001379721449
0.05977083333,-0.001357408939
0.05979166667,-0.001371784951
0.0598125,-0.001352835912
0.05983333333,-0.001372803352
0.05985416667,-0.001369758626
0.059875,-0.001401141286
0.05989583333,-0.001409468008
0.05991666667,-0.001415648498
0.0599375,-0.001415058272
0.05995833333,-0.001428484917
0.05997916667,-0.001431092387
0.06,-0.001468843897
0.06002083333,-0.00146828685
0.06004166667,-0.001469264622
0.0600625,-0.001475548837
0.06008333333,-0.001456867554
0.06010416667,-0.001479563187
0.060125,-0.001465232694
0.06014583333,-0.001482498599
0.06016666667,-0.001460671192
0.0601875,-0.001483369037
0.06020833333,-0.001471191877
0.06022916667,-0.001458525541
0.06025,-0.00143973669
0.06027083333,-0.001437198371
0.06029166667,-0.00142050779
0.0603125,-0.001411681063
0.06033333333,-0.001381558832
0.06035416667,-0.001335030538
0.060375,-0.001330349594
0.06039583333,-0.001298401854
0.06041666667,-0.001334985835
0.0604375,-0.001357898349
0.06045833333,-0.001364535186
0.06047916667,-0.001373728854
0.0605,-0.001341596711
0.06052083333,-0.001349605038
0.06054166667,-0.001361507457
0.0605625,-0.001357309869
0.06058333333,-0.001373008476
0.06060416667,-0.001336868037
0.060625,-0.001354071195
0.06064583333,-0.001311792294
0.06066666667,-0.001336447312
0.0606875,-0.001333707129
0.06070833333,-0.001339353388
0.06072916667,-0.001355854911
0.06075,-0.001354277832
0.06077083333,-0.001362464158
0.06079166667,-0.001334598986
0.0608125,-0.001342429197
0.06083333333,-0.001319098054
0.06085416667,-0.001349052414
0.060875,-0.001353330095
0.06089583333,-0.001381067093
0.06091666667,-0.001382244402
0.0609375,-0.001372982748
0.06095833333,-0.001378901885
0.06097916667,-0.00140074885
0.061,-0.001397232758
0.06102083333,-0.001429399941
0.06104166667,-0.001411070814
0.0610625,-0.001442189328
0.06108333333,-0.001427682349
0.06110416667,-0.001443986548
0.061125,-0.001454617828
0.06114583333,-0.001453647274
0.06116666667,-0.001496262732
0.0611875,-0.001500176033
0.06120833333,-0.00153781136
0.06122916667,-0.001502929954
0.06125,-0.001523970161
0.06127083333,-0.001516359625
0.06129166667,-0.001527018496
0.0613125,-0.001534446608
0.06133333333,-0.001559093711
0.06135416667,-0.001601089141
0.061375,-0.001601484837
0.06139583333,-0.00158733339
0.06141666667,-0.001562768943
0.0614375,-0.001571115223
0.06145833333,-0.001578526921
0.06147916667,-0.001580546028
0.0615,-0.001570977853
0.06152083333,-0.001559680444
0.06154166667,-0.00154150615
0.0615625,-0.001538200653
0.06158333333,-0.001553287962
0.06160416667,-0.001595723093
0.061625,-0.001611875137
0.06164583333,-0.001657249522
0.06166666667,-0.00162828085
0.0616875,-0.001629374456
0.06170833333,-0.00159599632
0.06172916667,-0.001585556776
0.06175,-0.001600238611
0.06177083333,-0.00160491257
0.06179166667,-0.001581114833
0.0618125,-0.001560444944
0.06183333333,-0.001514581381
0.06185416667,-0.001525856787
0.061875,-0.001561793964
0.06189583333,-0.001569241169
0.06191666667,-0.001609359868
0.0619375,-0.001574184396
0.06195833333,-0.001549958833
0.06197916667,-0.001517523429
0.062,-0.001502212835
0.06202083333,-0.001508989604
0.06204166667,-0.001501579187
0.0620625,-0.001475187717
0.06208333333,-0.001475567115
0.06210416667,-0.001442217734
0.062125,-0.001459193183
0.06214583333,-0.001439221785
0.06216666667,-0.00145344669
0.0621875,-0.001455763588
0.06220833333,-0.001432379708
0.06222916667,-0.00142641936
0.06225,-0.001383869327
0.06227083333,-0.001364810159
0.06229166667,-0.001340151997
0.0623125,-0.001318156836
0.06233333333,-0.001312359003
0.06235416667,-0.001307417871
0.062375,-0.001296049566
0.06239583333,-0.001304589212
0.06241666667,-0.00130160735
0.0624375,-0.001315599075
0.06245833333,-0.001318908064
0.06247916667,-0.001331370906
0.0625,-0.001327942824
0.06252083333,-0.001330151106
0.06254166667,-0.001323009492
0.0625625,-0.00131344574
0.06258333333,-0.001314799418
0.06260416667,-0.001325300545
0.062625,-0.001341881463
0.06264583333,-0.001331753796
0.06266666667,-0.001354759443
0.0626875,-0.001336272224
0.06270833333,-0.001353490865
0.06272916667,-0.001370440703
0.06275,-0.001395118539
0.06277083333,-0.001418111846
0.06279166667,-0.001406708499
0.0628125,-0.001387662021
0.06283333333,-0.00139879121
0.06285416667,-0.001383340219
0.062875,-0.001401494606
0.06289583333,-0.00139865966
0.06291666667,-0.001406488824
0.0629375,-0.001392738195
0.06295833333,-0.001379712368
0.06297916667,-0.001408101758
0.063,-0.001421247958
0.06302083333,-0.001458080369
0.06304166667,-0.001466711867
0.0630625,-0.001469186391
0.06308333333,-0.001453535515
0.06310416667,-0.001459233114
0.063125,-0.001447210321
0.06314583333,-0.001488107257
0.06316666667,-0.00145847688
0.0631875,-0.001506631845
0.06320833333,-0.001470633666
0.06322916667,-0.001464416389
0.06325,-0.001490710303
0.06327083333,-0.001501379884
0.06329166667,-0.00155259762
0.0633125,-0.001555820578
0.06333333333,-0.001576647162
0.06335416667,-0.001547898399
0.063375,-0.001525875879
0.06339583333,-0.001511473907
0.06341666667,-0.001482693595
0.0634375,-0.001438451814
0.06345833333,-0.001414570026
0.06347916667,-0.001356239663
0.0635,-0.001337905182
0.06352083333,-0.001292916597
0.06354166667,-0.001291373628
0.0635625,-0.001256039366
0.06358333333,-0.001255913288
0.06360416667,-0.001256086049
0.063625,-0.001231432543
0.06364583333,-0.001224723761
0.06366666667,-0.001197153935
0.0636875,-0.001181647065
0.06370833333,-0.001145466231
0.06372916667,-0.001130579854
0.06375,-0.001084770192
0.06377083333,-0.001080518239
0.06379166667,-0.001039945171
0.0638125,-0.001045529498
0.06383333333,-0.001041983254
0.06385416667,-0.001066518482
0.063875,-0.001076816581
0.06389583333,-0.001097955625
0.06391666667,-0.001093879924
0.0639375,-0.001106636599
0.06395833333,-0.001104509691
0.06397916667,-0.00106316281
0.064,-0.001038956107
0.06402083333,-0.0009722753312
0.06404166667,-0.0009536261787
0.0640625,-0.0009205032839
0.06408333333,-0.0008827766287
0.06410416667,-0.0008684764034
0.064125,-0.0008603669703
0.06414583333,-0.0008234187844
0.06416666667,-0.0008672699332
0.0641875,-0.0007907246472
0.06420833333,-0.0008095196681
0.06422916667,-0.0007968445425
0.06425,-0.0007438912871
0.06427083333,-0.000736253045
0.06429166667,-0.0006355178193
0.0643125,-0.000578526
0.06433333333,-0.0005690877442
0.06435416667,-0.0005388120771
0.064375,-0.0005399373476
0.06439583333,-0.0005424226983
0.06441666667,-0.0005296155578
0.0644375,-0.0005610577646
0.06445833333,-0.0005658750306
0.06447916667,-0.0006179502816
0.0645,-0.0006301959511
0.06452083333,-0.0006640966749
0.06454166667,-0.0006528305239
0.0645625,-0.0006555134314
0.06458333333,-0.0006423476152
0.06460416667,-0.0006532491534
0.064625,-0.0006713030743
0.06464583333,-0.0006919060834
0.06466666667,-0.0006964642089
0.0646875,-0.0006869341014
0.06470833333,-0.0006838150439
0.06472916667,-0.0006853977684
0.06475,-0.0007123706746
0.06477083333,-0.0007282607839
0.06479166667,-0.0007371192332
0.0648125,-0.0007165169809
0.06483333333,-0.0007130902959
0.06485416667,-0.0006758624222
0.064875,-0.0006857324624
0.06489583333,-0.0006578721805
0.06491666667,-0.0006543559721
0.0649375,-0.0006359129329
0.06495833333,-0.0006457585841
0.06497916667,-0.0006342727575
0.065,-0.0006216833135
0.06502083333,-0.0006024577888
0.06504166667,-0.0005903467536
0.0650625,-0.0005854513147
0.06508333333,-0.0005686993827
0.06510416667,-0.0005696397857
0.065125,-0.0005586115294
0.06514583333,-0.0005603712634
0.06516666667,-0.0005322866491
0.0651875,-0.0005269523244
0.06520833333,-0.000508532743
0.06522916667,-0.0005135379033
0.06525,-0.0004784809425
0.06527083333,-0.0004954760661
0.06529166667,-0.0004651989439
0.0653125,-0.0004965979024
0.06533333333,-0.0005004766281
0.06535416667,-0.0004814534332
0.065375,-0.0005042990088
0.06539583333,-0.0004949797876
0.06541666667,-0.0004920990905
0.0654375,-0.0004807629739
0.06545833333,-0.000454776542
0.06547916667,-0.0004123614635
0.0655,-0.0004013907746
0.06552083333,-0.0003427889314
0.06554166667,-0.0003229525755
0.0655625,-0.0002751863212
0.06558333333,-0.0002348253329
0.06560416667,-0.0002008349984
0.065625,-0.0001694176317
0.06564583333,-0.0001411869889
0.06566666667,-0.0001114066836
0.0656875,-7.158093649e-05
0.06570833333,-5.486759983e-05
0.06572916667,-2.462686825e-05
0.06575,3.507375368e-06
0.06577083333,4.003387221e-05
0.06579166667,0.0001044603268
0.0658125,0.0001642261632
0.06583333333,0.000240071342
0.06585416667,0.0002913880453
0.065875,0.0003386805474
0.06589583333,0.0003944247146
0.06591666667,0.000429433625
0.0659375,0.0004604996648
0.06595833333,0.0005082613789
0.06597916667,0.0005373925669
0.066,0.0005925813457
0.06602083333,0.0006174484151
0.06604166667,0.0006559165777
0.0660625,0.0006957672304
0.06608333333,0.0007454695296
0.06610416667,0.0007972199819
0.066125,0.0008520146366
0.06614583333,0.0008801743388
0.06616666667,0.0009197059553
0.0661875,0.0009668644634
0.06620833333,0.0009995030705
0.06622916667,0.001041059848
0.06625,0.001077449764
0.06627083333,0.00113066507
0.06629166667,0.00117640011
0.0663125,0.001227180706
0.06633333333,0.001261043944
0.06635416667,0.001313529909
0.066375,0.001350619132
0.06639583333,0.001400839537
0.06641666667,0.001437946921
0.0664375,0.001466198592
0.06645833333,0.001485283603
0.06647916667,0.001495474135
0.0665,0.001516801422
0.06652083333,0.001539219054
0.06654166667,0.001560699544
0.0665625,0.001585414633
0.06658333333,0.001602827455
0.06660416667,0.001620737952
0.066625,0.001628556754
0.06664583333,0.001622000011
0.06666666667,0.001623297925
0.0666875,0.001630749786
0.06670833333,0.00164017186
0.06672916667,0.001635011984
0.06675,0.001641605748
0.06677083333,0.001636957284
0.06679166667,0.001648775418
0.0668125,0.001657884801
0.06683333333,0.001683449605
0.06685416667,0.001700575347
0.066875,0.001718385727
0.06689583333,0.001727343071
0.06691666667,0.001745272893
0.0669375,0.001774835982
0.06695833333,0.001797541627
0.06697916667,0.001830700552
0.067,0.001853254973
0.06702083333,0.001883195713
0.06704166667,0.001920725685
0.0670625,0.001950648148
0.06708333333,0.001987644471
0.06710416667,0.002038648818
0.067125,0.002086297376
0.06714583333,0.00214328384
0.06716666667,0.002171202097
0.0671875,0.002213998232
0.06720833333,0.002243778901
0.06722916667,0.002276830608
0.06725,0.002303953283
0.06727083333,0.002346229041
0.06729166667,0.002383895451
0.0673125,0.002434288617
0.06733333333,0.002481066622
0.06735416667,0.002512636362
0.067375,0.002555162646
0.06739583333,0.002579621505
0.06741666667,0.00260921428
0.0674375,0.002643294167
0.06745833333,0.002690526191
0.06747916667,0.002731458284
0.0675,0.002766915364
0.06752083333,0.002784193493
0.06754166667,0.002796016634
0.0675625,0.002819642425
0.06758333333,0.002843589755
0.06760416667,0.002881254768
0.067625,0.002912424039
0.06764583333,0.002922578016
0.06766666667,0.002946586115
0.0676875,0.002959493082
0.06770833333,0.003004726954
0.06772916667,0.003042063676
0.06775,0.00309184147
0.06777083333,0.003135856939
0.06779166667,0.003161058296
0.0678125,0.003195541445
0.06783333333,0.003216882469
0.06785416667,0.003258549841
0.067875,0.00329813431
0.06789583333,0.003338702489
0.06791666667,0.003374858992
0.0679375,0.003417353146
0.06795833333,0.003456599312
0.06797916667,0.003500373336
0.068,0.003540275618
0.06802083333,0.003583871759
0.06804166667,0.003618042218
0.0680625,0.003647296689
0.06808333333,0.003666662844
0.06810416667,0.003693285398
0.068125,0.00370378769
0.06814583333,0.003710030112
0.06816666667,0.003707473166
0.0681875,0.003677920904
0.06820833333,0.003657366382
0.06822916667,0.003632110311
0.06825,0.003619152587
0.06827083333,0.003608897794
0.06829166667,0.003607182298
0.0683125,0.00359939062
0.06833333333,0.003596316325
0.06835416667,0.003584386315
0.068375,0.003594871843
0.06839583333,0.003608321771
0.06841666667,0.003618634306
0.0684375,0.003637413727
0.06845833333,0.003631398082
0.06847916667,0.003630044404
0.0685,0.003623502795
0.06852083333,0.003612244502
0.06854166667,0.003617738141
0.0685625,0.003606779501
0.06858333333,0.003597630188
0.06860416667,0.003588857362
0.068625,0.003582441481
0.06864583333,0.003595701884
0.06866666667,0.003596223192
0.0686875,0.003610154614
0.06870833333,0.003610960674
0.06872916667,0.003595756367
0.06875,0.003574978327
0.06877083333,0.003558229189
0.06879166667,0.003540806938
0.0688125,0.003523752093
0.06883333333,0.003505605971
0.06885416667,0.003475040663
0.068875,0.003452282865
0.06889583333,0.003418829991
0.06891666667,0.003389488673
0.0689375,0.003367893398
0.06895833333,0.003354478627
0.06897916667,0.003341392148
0.069,0.003333954839
0.06902083333,0.003319783136
0.06904166667,0.003312622197
0.0690625,0.003308220301
0.06908333333,0.003315813141
0.06910416667,0.003318724455
0.069125,0.00332507561
0.06914583333,0.00332281692
0.06916666667,0.003316668095
0.0691875,0.003309147665
0.06920833333,0.003297533141
0.06922916667,0.003294204827
0.06925,0.003289324697
0.06927083333,0.003289141459
0.06929166667,0.003282634309
0.0693125,0.003275382798
0.06933333333,0.003264212981
0.06935416667,0.003252601949
0.069375,0.003240817692
0.06939583333,0.003228564747
0.06941666667,0.003215257544
0.0694375,0.003203469096
0.06945833333,0.003188627074
0.06947916667,0.003183191177
0.0695,0.003164900467
0.06952083333,0.003152470104
0.06954166667,0.003136255778
0.0695625,0.003123516683
0.06958333333,0.003125398187
0.06960416667,0.003123455215
0.069625,0.003127894131
0.06964583333,0.003131474601
0.06966666667,0.003146216506
0.0696875,0.003152180463
0.06970833333,0.003175540129
0.06972916667,0.003201893065
0.06975,0.003237367142
0.06977083333,0.003272354836
0.06979166667,0.003301012795
0.0698125,0.003335792571
0.06983333333,0.003376275767
0.06985416667,0.003429601202
0.069875,0.003490515752
0.06989583333,0.003546216525
0.06991666667,0.003590482287
0.0699375,0.00362886209
0.06995833333,0.003664558986
0.06997916667,0.003706730902
0.07,0.003760636551
0.07002083333,0.003795580007
0.07004166667,0.003812902607
0.0700625,0.003821235616
0.07008333333,0.003809046
0.07010416667,0.00380563573
0.070125,0.003786985297
0.07014583333,0.00377659034
0.07016666667,0.00375476433
0.0701875,0.003727515694
0.07020833333,0.003703162074
0.07022916667,0.00368054444
0.07025,0.003671910614
0.07027083333,0.003674180945
0.07029166667,0.003688061144
0.0703125,0.003712102305
0.07033333333,0.003744179616
0.07035416667,0.003784528002
0.070375,0.003832167713
0.07039583333,0.003886543913
0.07041666667,0.003954004496
0.0704375,0.004017184023
0.07045833333,0.004081814084
0.07047916667,0.004133746028
0.0705,0.004193825647
0.07052083333,0.004250258673
0.07054166667,0.004313288722
0.0705625,0.00436150888
0.07058333333,0.00440958282
0.07060416667,0.004453930072
0.070625,0.004494395107
0.07064583333,0.00453308085
0.07066666667,0.004561834503
0.0706875,0.004585911985
0.07070833333,0.004596401472
0.07072916667,0.004601360764
0.07075,0.004596017767
0.07077083333,0.004582344089
0.07079166667,0.00456534978
0.0708125,0.004553768318
0.07083333333,0.004533532541
0.07085416667,0.004512805492
0.070875,0.004485067911
0.07089583333,0.004468674771
0.07091666667,0.004452133551
0.0709375,0.004448058084
0.07095833333,0.004441446625
0.07097916667,0.004440245684
0.071,0.004446799401
0.07102083333,0.004456633702
0.07104166667,0.004472800996
0.0710625,0.004494708963
0.07108333333,0.004520810209
0.07110416667,0.004551372491
0.071125,0.004584748764
0.07114583333,0.004617595114
0.07116666667,0.004658580292
0.0711875,0.004696038552
0.07120833333,0.004745100159
0.07122916667,0.004786099307
0.07125,0.0048340098
0.07127083333,0.004879624583
0.07129166667,0.00492390804
0.0713125,0.004959021695
0.07133333333,0.00498798443
0.07135416667,0.005003862083
0.071375,0.005014604423
0.07139583333,0.005017285701
0.07141666667,0.005014475901
0.0714375,0.005007328
0.07145833333,0.004986423068
0.07147916667,0.004966016859
0.0715,0.004939647857
0.07152083333,0.004923250526
0.07154166667,0.004904482514
0.0715625,0.004885216709
0.07158333333,0.004862573463
0.07160416667,0.004848235752
0.071625,0.004837570246
0.07164583333,0.004838067573
0.07166666667,0.004838936031
0.0716875,0.004849188495
0.07170833333,0.004854608793
0.07172916667,0.004856946878
0.07175,0.004857932217
0.07177083333,0.004863462411
0.07179166667,0.004873518366
0.0718125,0.004886367824
0.07183333333,0.004898933228
0.07185416667,0.004907454364
0.071875,0.004916279577
0.07189583333,0.004916729871
0.07191666667,0.004921605811
0.0719375,0.004925457295
0.07195833333,0.004929760471
0.07197916667,0.004925267305
0.072,0.00491320435
0.07202083333,0.004895952065
0.07204166667,0.004874477163
0.0720625,0.004845015239
0.07208333333,0.0048127966
0.07210416667,0.004775894806
0.072125,0.004736528732
0.07214583333,0.004698430654
0.07216666667,0.004662631545
0.0721875,0.004629686475
0.07220833333,0.004598367028
0.07222916667,0.004572626203
0.07225,0.004545463715
0.07227083333,0.00452072965
0.07229166667,0.004492225591
0.0723125,0.004466325976
0.07233333333,0.004438380711
0.07235416667,0.00441090297
0.072375,0.004372775089
0.07239583333,0.004335300531
0.07241666667,0.004292232916
0.0724375,0.004258704372
0.07245833333,0.004228833131
0.07247916667,0.004203934688
0.0725,0.004177764058
0.07252083333,0.004145388491
0.07254166667,0.004106401
0.0725625,0.004062336404
0.07258333333,0.004024024121
0.07260416667,0.003984926268
0.072625,0.003944730852
0.07264583333,0.003896514652
0.07266666667,0.003840679768
0.0726875,0.003783229971
0.07270833333,0.003723029979
0.07272916667,0.003666345263
0.07275,0.003614864312
0.07277083333,0.003562649712
0.07279166667,0.003513715696
0.0728125,0.003465319984
0.07283333333,0.003430159763
0.07285416667,0.003405313008
0.072875,0.003383422736
0.07289583333,0.003363711759
0.07291666667,0.003347200807
0.0729375,0.0033307923
0.07295833333,0.003322968725
0.07297916667,0.003329992527
0.073,0.003343485296
0.07302083333,0.003363668919
0.07304166667,0.003375697182
0.0730625,0.003381934483
0.07308333333,0.003382495604
0.07310416667,0.003382827388
0.073125,0.003383548465
0.07314583333,0.003386680968
0.07316666667,0.003380720504
0.0731875,0.003367135767
0.07320833333,0.003335524583
0.07322916667,0.00330260722
0.07325,0.003260057885
0.07327083333,0.003216142301
0.07329166667,0.003159475746
0.0733125,0.003099204972
0.07333333333,0.003034661524
0.07335416667,0.002966528293
0.073375,0.002905732021
0.07339583333,0.002839515451
0.07341666667,0.002777829766
0.0734375,0.002708128653
0.07345833333,0.00264525786
0.07347916667,0.002591717523
0.0735,0.002550125355
0.07352083333,0.002513989573
0.07354166667,0.0024814934
0.0735625,0.002443253761
0.07358333333,0.002406815765
0.07360416667,0.002374853473
0.073625,0.002355154371
0.07364583333,0.002335065743
0.07366666667,0.002310321201
0.0736875,0.002272383776
0.07370833333,0.002228400204
0.07372916667,0.002180665964
0.07375,0.002133713802
0.07377083333,0.002090140712
0.07379166667,0.00204121857
0.0738125,0.001991528785
0.07383333333,0.001933436841
0.07385416667,0.001879558433
0.073875,0.001824764186
0.07389583333,0.001776539022
0.07391666667,0.001722656889
0.0739375,0.001666356693
0.07395833333,0.001603925368
0.07397916667,0.001544834464
0.074,0.001490353025
0.07402083333,0.001440061606
0.07404166667,0.001381249866
0.0740625,0.001312145265
0.07408333333,0.001230284804
0.07410416667,0.001149816322
0.074125,0.001074504573
0.07414583333,0.001002371777
0.07416666667,0.0009320493555
0.0741875,0.000853673846
0.07420833333,0.0007730041398
0.07422916667,0.0006874725805
0.07425,0.0006139411125
0.07427083333,0.0005490817712
0.07429166667,0.0004962294479
0.0743125,0.0004453733563
0.07433333333,0.0003952669213
0.07435416667,0.0003446534683
0.074375,0.0003032298991
0.07439583333,0.0002666106157
0.07441666667,0.0002247080556
0.0744375,0.0001802214683
0.07445833333,0.0001406948722
0.07447916667,0.0001065454198
0.0745,7.089943392e-05
0.07452083333,3.951579129e-05
0.07454166667,1.067878293e-05
0.0745625,-2.004217095e-05
0.07458333333,-5.007381696e-05
0.07460416667,-7.599553646e-05
0.074625,-9.929144289e-05
0.07464583333,-0.0001129735101
0.07466666667,-0.0001265484607
0.0746875,-0.0001391645492
0.07470833333,-0.0001635153458
0.07472916667,-0.0001899368071
0.07475,-0.0002219469752
0.07477083333,-0.000251495745
0.07479166667,-0.0002824655094
0.0748125,-0.0003140899353
0.07483333333,-0.0003516823053
0.07485416667,-0.0003892705718
0.074875,-0.0004225776938
0.07489583333,-0.0004521084484
0.07491666667,-0.0004757541756
0.0749375,-0.0005002917605
0.07495833333,-0.000521611888
0.07497916667,-0.0005411133752
0.075,-0.0005509682233
0.07502083333,-0.0005559252459
0.07504166667,-0.000551902398
0.0750625,-0.0005509365001
0.07508333333,-0.0005523274885
0.07510416667,-0.0005601692828
0.075125,-0.0005656980793
0.07514583333,-0.0005686990335
0.07516666667,-0.000568472431
0.0751875,-0.0005685905926
0.07520833333,-0.0005703993374
0.07522916667,-0.0005716787418
0.07525,-0.0005717451568
0.07527083333,-0.0005669982638
0.07529166667,-0.0005603499012
0.0753125,-0.000551815785
0.07533333333,-0.0005460020038
0.07535416667,-0.0005372758606
0.075375,-0.0005323027726
0.07539583333,-0.0005189723452
0.07541666667,-0.0005078593967
0.0754375,-0.0004951989977
0.07545833333,-0.0004823494819
0.07547916667,-0.0004742856254
0.0755,-0.0004679610138
0.07552083333,-0.0004641312698
0.07554166667,-0.0004687645705
0.0755625,-0.0004788973893
0.07558333333,-0.0004919231869
0.07560416667,-0.00050384528
0.075625,-0.0005165126058
0.07564583333,-0.0005341649521
0.07566666667,-0.0005564496387
0.0756875,-0.000587388
0.07570833333,-0.0006186992396
0.07572916667,-0.0006510156672
0.07575,-0.0006822626456
0.07577083333,-0.0007115647895
0.07579166667,-0.0007360092131
0.0758125,-0.0007608140004
0.07583333333,-0.0007892439025
0.07585416667,-0.0008215187117
0.075875,-0.0008513530483
0.07589583333,-0.0008782786899
0.07591666667,-0.0009000675636
0.0759375,-0.0009198595071
0.07595833333,-0.0009387791506
0.07597916667,-0.0009597097524
0.076,-0.0009815001395
0.07602083333,-0.0009978304151
0.07604166667,-0.001009054831
0.0760625,-0.001017872244
0.07608333333,-0.001028714469
0.07610416667,-0.001038556336
0.076125,-0.001044071512
0.07614583333,-0.001039979164
0.07616666667,-0.001027774881
0.0761875,-0.001005533733
0.07620833333,-0.0009820435662
0.07622916667,-0.0009573509451
0.07625,-0.0009349797037
0.07627083333,-0.0009118143935
0.07629166667,-0.0008865726995
0.0763125,-0.000859490945
0.07633333333,-0.0008316226304
0.07635416667,-0.0008054455975
0.076375,-0.0007823206251
0.07639583333,-0.0007597252261
0.07641666667,-0.000736652466
0.0764375,-0.0007116773631
0.07645833333,-0.0006814708468
0.07647916667,-0.0006512443651
0.0765,-0.0006169026601
0.07652083333,-0.0005813908065
0.07654166667,-0.0005389419966
0.0765625,-0.0004899228807
0.07658333333,-0.0004350510717
0.07660416667,-0.0003781700507
0.076625,-0.000322456006
0.07664583333,-0.0002695969015
0.07666666667,-0.0002219424496
0.0766875,-0.0001765828056
0.07670833333,-0.0001301121811
0.07672916667,-8.057370724e-05
0.07675,-3.086928336e-05
0.07677083333,1.924435492e-05
0.07679166667,6.434872921e-05
0.0768125,0.0001004799124
0.07683333333,0.0001242059079
0.07685416667,0.0001422328205
0.076875,0.0001580884273
0.07689583333,0.0001796696597
0.07691666667,0.0002025098074
0.0769375,0.0002249747049
0.07695833333,0.0002388960711
0.07697916667,0.0002405978885
0.077,0.0002305394155
0.07702083333,0.0002127278276
0.07704166667,0.0001924404933
0.0770625,0.0001750763622
0.07708333333,0.000159630843
0.07710416667,0.0001427665411
0.077125,0.000122389436
0.07714583333,9.475245315e-05
0.07716666667,6.446846237e-05
0.0771875,3.150486737e-05
0.07720833333,-9.334617062e-07
0.07722916667,-2.95061036e-05
0.07725,-5.721607886e-05
0.07727083333,-8.44389433e-05
0.07729166667,-0.0001114127226
0.0773125,-0.0001416789019
0.07733333333,-0.0001736624399
0.07735416667,-0.0002095355885
0.077375,-0.0002459867683
0.07739583333,-0.0002844321425
0.07741666667,-0.0003259057994
0.0774375,-0.0003708037548
0.07745833333,-0.0004175789072
0.07747916667,-0.000463628734
0.0775,-0.0005060762051
0.07752083333,-0.0005444919807
0.07754166667,-0.00058468309
0.0775625,-0.0006256377674
0.07758333333,-0.0006728987792
0.07760416667,-0.0007228748873
0.077625,-0.0007783375913
0.07764583333,-0.0008324732771
0.07766666667,-0.000886045571
0.0776875,-0.0009418912232
0.07770833333,-0.00100200274
0.07772916667,-0.001067816513
0.07775,-0.001143553876
0.07777083333,-0.001227338566
0.07779166667,-0.00131520303
0.0778125,-0.001399774104
0.07783333333,-0.00148260768
0.07785416667,-0.001564127277
0.077875,-0.001645157696
0.07789583333,-0.001721172128
0.07791666667,-0.001791102812
0.0779375,-0.001856652088
0.07795833333,-0.001916121226
0.07797916667,-0.00197922904
0.078,-0.002039097482
0.07802083333,-0.002097626217
0.07804166667,-0.002148369327
0.0780625,-0.002192406915
0.07808333333,-0.002234098036
0.07810416667,-0.002275167266
0.078125,-0.002320301253
0.07814583333,-0.002366452478
0.07816666667,-0.002414515242
0.0781875,-0.002462202683
0.07820833333,-0.002508215141
0.07822916667,-0.002562033478
0.07825,-0.002617179882
0.07827083333,-0.00267518172
0.07829166667,-0.002734155161
0.0783125,-0.002795282286
0.07833333333,-0.00286165718
0.07835416667,-0.002928236965
0.078375,-0.002997636329
0.07839583333,-0.003062793054
0.07841666667,-0.003127072938
0.0784375,-0.003188410075
0.07845833333,-0.003252697177
0.07847916667,-0.003316618036
0.0785,-0.003378160065
0.07852083333,-0.003437416162
0.07854166667,-0.003493845463
0.0785625,-0.003548594657
0.07858333333,-0.003601409495
0.07860416667,-0.00365209626
0.078625,-0.003701063804
0.07864583333,-0.003744368674
0.07866666667,-0.003786697052
0.0786875,-0.003830978647
0.07870833333,-0.003873196663
0.07872916667,-0.003916621674
0.07875,-0.003957283217
0.07877083333,-0.003995822743
0.07879166667,-0.00403281115
0.0788125,-0.004074056167
0.07883333333,-0.004116075113
0.07885416667,-0.004159589764
0.078875,-0.004200521391
0.07889583333,-0.004239463713
0.07891666667,-0.004276515916
0.0789375,-0.004307867959
0.07895833333,-0.00433978159
0.07897916667,-0.004375463352
0.079,-0.004413322546
0.07902083333,-0.004455626942
0.07904166667,-0.004494771361
0.0790625,-0.004532878287
0.07908333333,-0.004570142366
0.07910416667,-0.00460612122
0.079125,-0.004643765278
0.07914583333,-0.004677339457
0.07916666667,-0.00471418025
0.0791875,-0.004750817083
0.07920833333,-0.004790022038
0.07922916667,-0.004826435819
0.07925,-0.0048639304
0.07927083333,-0.004898710642
0.07929166667,-0.004931969102
0.0793125,-0.004958638921
0.07933333333,-0.004987471737
0.07935416667,-0.00501693273
0.079375,-0.005044250749
0.07939583333,-0.005065573379
0.07941666667,-0.005080590956
0.0794375,-0.005096331239
0.07945833333,-0.005110606551
0.07947916667,-0.005130647216
0.0795,-0.005153879523
0.07952083333,-0.005177195184
0.07954166667,-0.005201285705
0.0795625,-0.005229030736
0.07958333333,-0.00525643304
0.07960416667,-0.005286476575
0.079625,-0.005320881493
0.07964583333,-0.005360521376
0.07966666667,-0.005404071417
0.0796875,-0.00544618303
0.07970833333,-0.005479601212
0.07972916667,-0.00551629113
0.07975,-0.005554655567
0.07977083333,-0.005596923176
0.07979166667,-0.005641949363
0.0798125,-0.005691082217
0.07983333333,-0.00574649591
0.07985416667,-0.005798066501
0.079875,-0.00585009018
0.07989583333,-0.005897976458
0.07991666667,-0.005949775223
0.0799375,-0.005998956505
0.07995833333,-0.006046725903
0.07997916667,-0.00608879514
0.08,-0.006141346879
0.08002083333,-0.006177687086
0.08004166667,-0.006210363936
0.0800625,-0.006233667489
0.08008333333,-0.006261712871
0.08010416667,-0.006290209014
0.080125,-0.006322320551
0.08014583333,-0.006352477707
0.08016666667,-0.006375600584
0.0801875,-0.006400175858
0.08020833333,-0.006425357889
0.08022916667,-0.006452249829
0.08025,-0.006477305666
0.08027083333,-0.00650704978
0.08029166667,-0.006528247613
0.0803125,-0.006550355814
0.08033333333,-0.00656470377
0.08035416667,-0.006584761199
0.080375,-0.006606615614
0.08039583333,-0.006635451224
0.08041666667,-0.006664398592
0.0804375,-0.006698825397
0.08045833333,-0.006736075506
0.08047916667,-0.006776475813
0.0805,-0.00681865355
0.08052083333,-0.006864653435
0.08054166667,-0.006916094571
0.0805625,-0.006965630222
0.08058333333,-0.00702291308
0.08060416667,-0.007080922369
0.080625,-0.007140785921
0.08064583333,-0.007189835422
0.08066666667,-0.007231512573
0.0806875,-0.007267348003
0.08070833333,-0.007300219499
0.08072916667,-0.007333138492
0.08075,-0.007366940379
0.08077083333,-0.00739595294
0.08079166667,-0.007421276066
0.0808125,-0.007440789603
0.08083333333,-0.007464854978
0.08085416667,-0.007487057708
0.080875,-0.007513815537
0.08089583333,-0.007541721221
0.08091666667,-0.007562817074
0.0809375,-0.007585000712
0.08095833333,-0.007602967322
0.08097916667,-0.007627696265
0.081,-0.007649876643
0.08102083333,-0.007667006459
0.08104166667,-0.007672856562
0.0810625,-0.007673418149
0.08108333333,-0.007674086373
0.08110416667,-0.007688085549
0.081125,-0.007697097491
0.08114583333,-0.007712116465
0.08116666667,-0.007721702103
0.0811875,-0.007725252304
0.08120833333,-0.007725845557
0.08122916667,-0.007728099357
0.08125,-0.00773926964
0.08127083333,-0.007754030172
0.08129166667,-0.007765095681
0.0813125,-0.007766244002
0.08133333333,-0.007760503329
0.08135416667,-0.007742858957
0.081375,-0.007734141778
0.08139583333,-0.007712389808
0.08141666667,-0.007690870203
0.0814375,-0.007665587589
0.08145833333,-0.007626635022
0.08147916667,-0.007582644932
0.0815,-0.0075371149
0.08152083333,-0.007486546878
0.08154166667,-0.007437114604
0.0815625,-0.007383215241
0.08158333333,-0.007329171058
0.08160416667,-0.007278034464
0.081625,-0.007224293426
0.08164583333,-0.007179759443
0.08166666667,-0.007131391671
0.0816875,-0.007084122859
0.08170833333,-0.007032628171
0.08172916667,-0.00698945066
0.08175,-0.00694829179
0.08177083333,-0.006907924078
0.08179166667,-0.006860794034
0.0818125,-0.006820506416
0.08183333333,-0.006770316977
0.08185416667,-0.006721342448
0.081875,-0.006664120127
0.08189583333,-0.006612823345
0.08191666667,-0.006557940505
0.0819375,-0.00649621198
0.08195833333,-0.006426157895
0.08197916667,-0.006345485337
0.082,-0.006275711115
0.08202083333,-0.006198109593
0.08204166667,-0.00612113066
0.0820625,-0.006034363993
0.08208333333,-0.005945430137
0.08210416667,-0.005846444517
0.082125,-0.005760957953
0.08214583333,-0.005677302368
0.08216666667,-0.005594154354
0.0821875,-0.005509268492
0.08220833333,-0.005422806367
0.08222916667,-0.005329266191
0.08225,-0.005242699757
0.08227083333,-0.005159185734
0.08229166667,-0.005072225817
0.0823125,-0.004987724591
0.08233333333,-0.004905011039
0.08235416667,-0.004821814131
0.082375,-0.004736593459
0.08239583333,-0.004667845089
0.08241666667,-0.004598868079
0.0824375,-0.004537502304
0.08245833333,-0.004472612869
0.08247916667,-0.004413666204
0.0825,-0.004358781502
0.08252083333,-0.004307635128
0.08254166667,-0.004258415662
0.0825625,-0.004211576656
0.08258333333,-0.004171630833
0.08260416667,-0.004140320234
0.082625,-0.004107451998
0.08264583333,-0.004083323758
0.08266666667,-0.004066241439
0.0826875,-0.004048053641
0.08270833333,-0.004031976219
0.08272916667,-0.004018163309
0.08275,-0.004016459454
0.08277083333,-0.004006500822
0.08279166667,-0.004010790493
0.0828125,-0.004002244677
0.08283333333,-0.004000608344
0.08285416667,-0.003998879809
0.082875,-0.003994723316
0.08289583333,-0.003989540506
0.08291666667,-0.003997421823
0.0829375,-0.004002212547
0.08295833333,-0.004008805379
0.08297916667,-0.004014333244
0.083,-0.004012051504
0.08302083333,-0.004012370482
0.08304166667,-0.004011043347
0.0830625,-0.004009258002
0.08308333333,-0.00399315916
0.08310416667,-0.003979252651
0.083125,-0.003944951575
0.08314583333,-0.003915800713
0.08316666667,-0.003881197656
0.0831875,-0.003841386409
0.08320833333,-0.003788600909
0.08322916667,-0.003743050387
0.08325,-0.003692818107
0.08327083333,-0.003644581186
0.08329166667,-0.003594818991
0.0833125,-0.003534488147
0.08333333333,-0.003469796851
0.08335416667,-0.003403712297
0.083375,-0.003346075304
0.08339583333,-0.0032871617
0.08341666667,-0.003245546017
0.0834375,-0.003199462313
0.08345833333,-0.003145211842
0.08347916667,-0.003086051438
0.0835,-0.00303279236
0.08352083333,-0.002979028039
0.08354166667,-0.002940580947
0.0835625,-0.00289534335
0.08358333333,-0.002865494927
0.08360416667,-0.002827213611
0.083625,-0.002794350963
0.08364583333,-0.002748270286
0.08366666667,-0.002708010841
0.0836875,-0.002663154621
0.08370833333,-0.002630002797
0.08372916667,-0.002591414144
0.08375,-0.002552391263
0.08377083333,-0.002520098118
0.08379166667,-0.002480442636
0.0838125,-0.002444779966
0.08383333333,-0.002404398983
0.08385416667,-0.002375635784
0.083875,-0.002336923033
0.08389583333,-0.002305127913
0.08391666667,-0.002259309171
0.0839375,-0.002225444186
0.08395833333,-0.002175568603
0.08397916667,-0.00212521106
0.084,-0.002066474641
0.08402083333,-0.002009500749
0.08404166667,-0.001947998302
0.0840625,-0.00189980166
0.08408333333,-0.001841087127
0.08410416667,-0.001790330047
0.084125,-0.001733895042
0.08414583333,-0.001668815501
0.08416666667,-0.001608675346
0.0841875,-0.001547027729
0.08420833333,-0.001492867246
0.08422916667,-0.001442549867
0.08425,-0.001387588447
0.08427083333,-0.001317349612
0.08429166667,-0.001260001562
0.0843125,-0.001197752194
0.08433333333,-0.001148288255
0.08435416667,-0.001089356374
0.084375,-0.00103288074
0.08439583333,-0.0009817250539
0.08441666667,-0.0009609616827
0.0844375,-0.0009347352316
0.08445833333,-0.0009277408244
0.08447916667,-0.0009070777451
0.0845,-0.0008999525453
0.08452083333,-0.0008958599064
0.08454166667,-0.0008902589907
0.0845625,-0.0008920840337
0.08458333333,-0.0008929428877
0.08460416667,-0.0008984230808
0.084625,-0.0008973994991
0.08464583333,-0.0009053925169
0.08466666667,-0.0009026164771
0.0846875,-0.0009096198482
0.08470833333,-0.0009141649934
0.08472916667,-0.0009283189429
0.08475,-0.0009347840678
0.08477083333,-0.0009551554685
0.08479166667,-0.0009557149606
0.0848125,-0.0009685067926
0.08483333333,-0.0009704964468
0.08485416667,-0.0009782180423
0.084875,-0.0009649795829
0.08489583333,-0.0009605914238
0.08491666667,-0.0009541584877
0.0849375,-0.0009499319131
0.08495833333,-0.0009399978444
0.08497916667,-0.0009178557666
0.085,-0.0008982531726
0.08502083333,-0.000870492775
0.08504166667,-0.000856716244
0.0850625,-0.000829976867
0.08508333333,-0.0008040137473
0.08510416667,-0.0007713748491
0.085125,-0.0007445838419
0.08514583333,-0.0007044125814
0.08516666667,-0.0006734342314
0.0851875,-0.0006270591985
0.08520833333,-0.0005995070678
0.08522916667,-0.0005459419335
0.08525,-0.0005111063365
0.08527083333,-0.0004652391362
0.08529166667,-0.0004221634881
0.0853125,-0.0003861490695
0.08533333333,-0.000340516126
0.08535416667,-0.000291343953
0.085375,-0.0002214823035
0.08539583333,-0.0001810799149
0.08541666667,-0.0001337319845
0.0854375,-7.27898223e-05
0.08545833333,-8.371764125e-06
0.08547916667,6.461609155e-05
0.0855,0.0001387797238
0.08552083333,0.0001850112458
0.08554166667,0.0002694074938
0.0855625,0.0003399800044
0.08558333333,0.000432374829
0.08560416667,0.000517667213
0.085625,0.0006123967469
0.08564583333,0.0007062916993
0.08566666667,0.0007991170278
0.0856875,0.000898315222
0.08570833333,0.0009900482837
0.08572916667,0.001087768818
0.08575,0.001180240768
0.08577083333,0.001280277618
0.08579166667,0.001374440501
0.0858125,0.001466187765
0.08583333333,0.001547529362
0.08585416667,0.001633621636
0.085875,0.001711535151
0.08589583333,0.001800695551
0.08591666667,0.001891922904
0.0859375,0.001977485605
0.08595833333,0.00205850671
0.08597916667,0.002138555981
0.086,0.002217524918
0.08602083333,0.002300584689
0.08604166667,0.002379290061
0.0860625,0.002460954944
0.08608333333,0.002533543622
0.08610416667,0.002603278728
0.086125,0.002679156372
0.08614583333,0.002740238328
0.08616666667,0.002805084223
0.0861875,0.002867995761
0.08620833333,0.00293756905
0.08622916667,0.003009236651
0.08625,0.003082159674
0.08627083333,0.003147329902
0.08629166667,0.00322291418
0.0863125,0.003291611094
0.08633333333,0.003359292401
0.08635416667,0.003425520845
0.086375,0.003493473399
0.08639583333,0.003561968915
0.08641666667,0.00363896857
0.0864375,0.00370378606
0.08645833333,0.003763804678
0.08647916667,0.003820610465
0.0865,0.003873399924
0.08652083333,0.003930780105
0.08654166667,0.003973281477
0.0865625,0.004012844991
0.08658333333,0.004052864853
0.08660416667,0.004097822122
0.086625,0.004129266366
0.08664583333,0.004160721786
0.08666666667,0.004188410006
0.0866875,0.004216982517
0.08670833333,0.004242358729
0.08672916667,0.00426519569
0.08675,0.004288414493
0.08677083333,0.004313612822
0.08679166667,0.004335427191
0.0868125,0.004360475112
0.08683333333,0.004386579618
0.08685416667,0.004409313668
0.086875,0.004447754938
0.08689583333,0.004493457731
0.08691666667,0.004540299997
0.0869375,0.004583775066
0.08695833333,0.004633806646
0.08697916667,0.004691823386
0.087,0.004772761371
0.08702083333,0.004844623618
0.08704166667,0.004927598871
0.0870625,0.005027804058
0.08708333333,0.005129716825
0.08710416667,0.00522438949
0.087125,0.005339919589
0.08714583333,0.005448931362
0.08716666667,0.005564662628
0.0871875,0.005688240752
0.08720833333,0.005816461984
0.08722916667,0.005954698194
0.08725,0.006090539973
0.08727083333,0.00621669041
0.08729166667,0.006345658563
0.0873125,0.00647279527
0.08733333333,0.006598555017
0.08735416667,0.006728708744
