time,data
0,-5.083019339e-09
2.083333333e-05,4.108089424e-09
4.166666667e-05,1.279344275e-08
6.25e-05,2.09057287e-08
8.333333333e-05,2.903984786e-08
0.0001041666667,3.757652323e-08
0.000125,4.666160791e-08
0.0001458333333,5.607937581e-08
0.0001666666667,6.528836138e-08
0.0001875,7.425218485e-08
0.0002083333333,8.30177882e-08
0.0002291666667,9.227528608e-08
0.00025,1.023628755e-07
0.0002708333333,1.134018959e-07
0.0002916666667,1.250815984e-07
0.0003125,1.367807414e-07
0.0003333333333,1.483765715e-07
0.0003541666667,1.597230863e-07
0.000375,1.713212185e-07
0.0003958333333,1.83260056e-07
0.0004166666667,1.955107365e-07
0.0004375,2.077085668e-07
0.0004583333333,2.192346074e-07
0.0004791666667,2.300138533e-07
0.0005,2.398896868e-07
0.0005208333333,2.494253977e-07
0.0005416666667,2.58813742e-07
0.0005625,2.683123341e-07
0.0005833333333,2.778032808e-07
0.0006041666667,2.868770537e-07
0.000625,2.954123772e-07
0.0006458333333,3.030696121e-07
0.0006666666667,3.102415178e-07
0.0006875,3.169887748e-07
0.0007083333333,3.236252724e-07
0.0007291666667,3.299339824e-07
0.00075,3.352778322e-07
0.0007708333333,3.391579355e-07
0.0007916666667,3.408243572e-07
0.0008125,3.407029965e-07
0.0008333333333,3.390554468e-07
0.0008541666667,3.367380543e-07
0.000875,3.338599868e-07
0.0008958333333,3.298836759e-07
0.0009166666667,3.242941489e-07
0.0009375,3.163608255e-07
0.0009583333333,3.068616365e-07
0.0009791666667,2.965555836e-07
0.001,2.865895965e-07
0.001020833333,2.770175911e-07
0.001041666667,2.667201215e-07
0.0010625,2.545741609e-07
0.001083333333,2.394535557e-07
0.001104166667,2.221160003e-07
0.001125,2.035083497e-07
0.001145833333,1.848488438e-07
0.001166666667,1.659247175e-07
0.0011875,1.454308034e-07
0.001208333333,1.220855381e-07
0.001229166667,9.531493106e-08
0.00125,6.656983231e-08
0.001270833333,3.752949596e-08
0.001291666667,9.845537718e-09
0.0013125,-1.678648331e-08
0.001333333333,-4.374359719e-08
0.001354166667,-7.234073962e-08
0.001375,-1.031062098e-07
0.001395833333,-1.344164673e-07
0.001416666667,-1.650326169e-07
0.0014375,-1.937686989e-07
0.001458333333,-2.216942789e-07
0.001479166667,-2.505783527e-07
0.0015,-2.817672566e-07
0.001520833333,-3.156050354e-07
0.001541666667,-3.502867969e-07
0.0015625,-3.844150456e-07
0.001583333333,-4.16748037e-07
0.001604166667,-4.478445135e-07
0.001625,-4.788500974e-07
0.001645833333,-5.103237299e-07
0.001666666667,-5.421468359e-07
0.0016875,-5.725304391e-07
0.001708333333,-6.004026432e-07
0.001729166667,-6.247667557e-07
0.00175,-6.464809985e-07
0.001770833333,-6.666259083e-07
0.001791666667,-6.863325552e-07
0.0018125,-7.061012752e-07
0.001833333333,-7.251172747e-07
0.001854166667,-7.429061952e-07
0.001875,-7.584033597e-07
0.001895833333,-7.719285691e-07
0.001916666667,-7.839705063e-07
0.0019375,-7.951901466e-07
0.001958333333,-8.06235164e-07
0.001979166667,-8.159531717e-07
0.002,-8.23484811e-07
0.002020833333,-8.26691064e-07
0.002041666667,-8.251092254e-07
0.0020625,-8.191119036e-07
0.002083333333,-8.100949458e-07
0.002104166667,-7.998615388e-07
0.002125,-7.883134572e-07
0.002145833333,-7.747415793e-07
0.002166666667,-7.572302252e-07
0.0021875,-7.351961244e-07
0.002208333333,-7.099497452e-07
0.002229166667,-6.837453839e-07
0.00225,-6.590462363e-07
0.002270833333,-6.354596849e-07
0.002291666667,-6.11018379e-07
0.0023125,-5.823882248e-07
0.002333333333,-5.482049232e-07
0.002354166667,-5.094515245e-07
0.002375,-4.689483148e-07
0.002395833333,-4.288951914e-07
0.002416666667,-3.887648177e-07
0.0024375,-3.459501556e-07
0.002458333333,-2.97289148e-07
0.002479166667,-2.423718684e-07
0.0025,-1.837506289e-07
0.002520833333,-1.255407653e-07
0.002541666667,-7.082591225e-08
0.0025625,-1.885316792e-08
0.002583333333,3.288340977e-08
0.002604166667,8.778940952e-08
0.002625,1.459659131e-07
0.002645833333,2.051295382e-07
0.002666666667,2.619281645e-07
0.0026875,3.146853942e-07
0.002708333333,3.652973533e-07
0.002729166667,4.171572243e-07
0.00275,4.733347794e-07
0.002770833333,5.339197173e-07
0.002791666667,5.960764042e-07
0.0028125,6.566734214e-07
0.002833333333,7.135058127e-07
0.002854166667,7.676753739e-07
0.002875,8.208632494e-07
0.002895833333,8.747630886e-07
0.002916666667,9.285298574e-07
0.0029375,9.797539633e-07
0.002958333333,1.025871597e-06
0.002979166667,1.065575702e-06
0.003,1.099909923e-06
0.003020833333,1.130978944e-06
0.003041666667,1.160910301e-06
0.0030625,1.190695798e-06
0.003083333333,1.219533374e-06
0.003104166667,1.246302986e-06
0.003125,1.269339464e-06
0.003145833333,1.288777412e-06
0.003166666667,1.305084197e-06
0.0031875,1.320020715e-06
0.003208333333,1.334208378e-06
0.003229166667,1.346956196e-06
0.00325,1.355957465e-06
0.003270833333,1.357944939e-06
0.003291666667,1.351402716e-06
0.0033125,1.336745072e-06
0.003333333333,1.316811563e-06
0.003354166667,1.294836693e-06
0.003375,1.27133876e-06
0.003395833333,1.245250473e-06
0.003416666667,1.2127324e-06
0.0034375,1.172968837e-06
0.003458333333,1.127336191e-06
0.003479166667,1.08056588e-06
0.0035,1.036755521e-06
0.003520833333,9.959599083e-07
0.003541666667,9.546101865e-07
0.0035625,9.068410236e-07
0.003583333333,8.497906947e-07
0.003604166667,7.851774626e-07
0.003625,7.177112025e-07
0.003645833333,6.518272357e-07
0.003666666667,5.865780395e-07
0.0036875,5.178495712e-07
0.003708333333,4.397332134e-07
0.003729166667,3.516165918e-07
0.00375,2.573730455e-07
0.003770833333,1.646396726e-07
0.003791666667,7.833867954e-08
0.0038125,-2.106350872e-09
0.003833333333,-8.149410746e-08
0.003854166667,-1.654750292e-07
0.003875,-2.545412201e-07
0.003895833333,-3.448623147e-07
0.003916666667,-4.306155006e-07
0.0039375,-5.087971999e-07
0.003958333333,-5.82861162e-07
0.003979166667,-6.580946206e-07
0.004,-7.406759437e-07
0.004020833333,-8.29789883e-07
0.004041666667,-9.216893773e-07
0.0040625,-1.009965899e-06
0.004083333333,-1.091632498e-06
0.004104166667,-1.168127028e-06
0.004125,-1.242706844e-06
0.004145833333,-1.318450472e-06
0.004166666667,-1.393768684e-06
0.0041875,-1.464799539e-06
0.004208333333,-1.526864935e-06
0.004229166667,-1.577808234e-06
0.00425,-1.619893965e-06
0.004270833333,-1.656233849e-06
0.004291666667,-1.691750981e-06
0.0043125,-1.726538926e-06
0.004333333333,-1.76062963e-06
0.004354166667,-1.790267902e-06
0.004375,-1.813966833e-06
0.004395833333,-1.831458121e-06
0.004416666667,-1.844204576e-06
0.0044375,-1.855758455e-06
0.004458333333,-1.866267326e-06
0.004479166667,-1.87517503e-06
0.0045,-1.877480827e-06
0.004520833333,-1.86828845e-06
0.004541666667,-1.845783913e-06
0.0045625,-1.810253821e-06
0.004583333333,-1.768426614e-06
0.004604166667,-1.723102628e-06
0.004625,-1.677183377e-06
0.004645833333,-1.626059202e-06
0.004666666667,-1.565405569e-06
0.0046875,-1.493239097e-06
0.004708333333,-1.412566689e-06
0.004729166667,-1.331978638e-06
0.00475,-1.256550149e-06
0.004770833333,-1.187349881e-06
0.004791666667,-1.116890076e-06
0.0048125,-1.036528261e-06
0.004833333333,-9.423789606e-07
0.004854166667,-8.366026236e-07
0.004875,-7.291126849e-07
0.004895833333,-6.239805543e-07
0.004916666667,-5.22270966e-07
0.0049375,-4.141580519e-07
0.004958333333,-2.92707881e-07
0.004979166667,-1.558335612e-07
0.005,-1.06195106e-08
0.005020833333,1.302430803e-07
0.005041666667,2.605494274e-07
0.0050625,3.798905084e-07
0.005083333333,4.978504649e-07
0.005104166667,6.219775059e-07
0.005125,7.531590995e-07
0.005145833333,8.858586398e-07
0.005166666667,1.009022867e-06
0.0051875,1.121066362e-06
0.005208333333,1.224044468e-06
0.005229166667,1.330000032e-06
0.00525,1.445057364e-06
0.005270833333,1.570296604e-06
0.005291666667,1.698436222e-06
0.0053125,1.81976111e-06
0.005333333333,1.930933877e-06
0.005354166667,2.032378916e-06
0.005375,2.131484507e-06
0.005395833333,2.230708333e-06
0.005416666667,2.329059043e-06
0.0054375,2.420435749e-06
0.005458333333,2.496702109e-06
0.005479166667,2.557524567e-06
0.0055,2.602316272e-06
0.005520833333,2.64058599e-06
0.005541666667,2.674640427e-06
0.0055625,2.708913826e-06
0.005583333333,2.740716127e-06
0.005604166667,2.765793624e-06
0.005625,2.782958973e-06
0.005645833333,2.789296332e-06
0.005666666667,2.790234021e-06
0.0056875,2.787189715e-06
0.005708333333,2.783258196e-06
0.005729166667,2.776615929e-06
0.00575,2.75956927e-06
0.005770833333,2.72811485e-06
0.005791666667,2.674755024e-06
0.0058125,2.605532245e-06
0.005833333333,2.523805279e-06
0.005854166667,2.439154287e-06
0.005875,2.352297088e-06
0.005895833333,2.258841505e-06
0.005916666667,2.153312835e-06
0.0059375,2.030271844e-06
0.005958333333,1.897514949e-06
0.005979166667,1.762816055e-06
0.006,1.63722666e-06
0.006020833333,1.520380579e-06
0.006041666667,1.402131261e-06
0.0060625,1.272722784e-06
0.006083333333,1.121756213e-06
0.006104166667,9.583789051e-07
0.006125,7.891462701e-07
0.006145833333,6.267075605e-07
0.006166666667,4.675027583e-07
0.0061875,3.011484182e-07
0.006208333333,1.176758033e-07
0.006229166667,-8.794008721e-08
0.00625,-3.020028316e-07
0.006270833333,-5.11640792e-07
0.006291666667,-7.036738339e-07
0.0063125,-8.805209859e-07
0.006333333333,-1.054337417e-06
0.006354166667,-1.233972398e-06
0.006375,-1.424613288e-06
0.006395833333,-1.612568894e-06
0.006416666667,-1.789959356e-06
0.0064375,-1.947132205e-06
0.006458333333,-2.093917374e-06
0.006479166667,-2.241905122e-06
0.0065,-2.402063274e-06
0.006520833333,-2.575930239e-06
0.006541666667,-2.750384965e-06
0.0065625,-2.916964831e-06
0.006583333333,-3.065369128e-06
0.006604166667,-3.201727623e-06
0.006625,-3.332756251e-06
0.006645833333,-3.46228785e-06
0.006666666667,-3.591507493e-06
0.0066875,-3.705751169e-06
0.006708333333,-3.802277888e-06
0.006729166667,-3.871362424e-06
0.00675,-3.921632469e-06
0.006770833333,-3.959137302e-06
0.006791666667,-3.991472568e-06
0.0068125,-4.023489964e-06
0.006833333333,-4.049010386e-06
0.006854166667,-4.066996553e-06
0.006875,-4.069535862e-06
0.006895833333,-4.059503681e-06
0.006916666667,-4.039482519e-06
0.0069375,-4.014054412e-06
0.006958333333,-3.988356184e-06
0.006979166667,-3.954691692e-06
0.007,-3.910469331e-06
0.007020833333,-3.839633337e-06
0.007041666667,-3.743385832e-06
0.0070625,-3.620455118e-06
0.007083333333,-3.483047294e-06
0.007104166667,-3.341115871e-06
0.007125,-3.194266128e-06
0.007145833333,-3.041090395e-06
0.007166666667,-2.866301202e-06
0.0071875,-2.671136372e-06
0.007208333333,-2.459485586e-06
0.007229166667,-2.246908934e-06
0.00725,-2.048403985e-06
0.007270833333,-1.85885267e-06
0.007291666667,-1.672364533e-06
0.0073125,-1.463796025e-06
0.007333333333,-1.231781766e-06
0.007354166667,-9.774870477e-07
0.007375,-7.196281899e-07
0.007395833333,-4.707575272e-07
0.007416666667,-2.2602174e-07
0.0074375,2.496752494e-08
0.007458333333,3.037526994e-07
0.007479166667,6.081097581e-07
0.0075,9.273534829e-07
0.007520833333,1.237512151e-06
0.007541666667,1.522091225e-06
0.0075625,1.787380711e-06
0.007583333333,2.042820142e-06
0.007604166667,2.311920298e-06
0.007625,2.588943971e-06
0.007645833333,2.868058345e-06
0.007666666667,3.1271029e-06
0.0076875,3.360128403e-06
0.007708333333,3.577158168e-06
0.007729166667,3.792516054e-06
0.00775,4.027029718e-06
0.007770833333,4.274608727e-06
0.007791666667,4.527080364e-06
0.0078125,4.764340247e-06
0.007833333333,4.97741712e-06
0.007854166667,5.173584668e-06
0.007875,5.357041118e-06
0.007895833333,5.543302905e-06
0.007916666667,5.720459285e-06
0.0079375,5.884869097e-06
0.007958333333,6.018068234e-06
0.007979166667,6.117975317e-06
0.008,6.189609394e-06
0.008020833333,6.240823495e-06
0.008041666667,6.28742464e-06
0.0080625,6.327000847e-06
0.008083333333,6.363004104e-06
0.008104166667,6.384020253e-06
0.008125,6.386330369e-06
0.008145833333,6.370865776e-06
0.008166666667,6.337072591e-06
0.0081875,6.29999704e-06
0.008208333333,6.253516403e-06
0.008229166667,6.204296369e-06
0.00825,6.133123406e-06
0.008270833333,6.032727924e-06
0.008291666667,5.894506103e-06
0.0083125,5.71969349e-06
0.008333333333,5.526960194e-06
0.008354166667,5.321485332e-06
0.008375,5.115618478e-06
0.008395833333,4.895324309e-06
0.008416666667,4.651277777e-06
0.0084375,4.378637641e-06
0.008458333333,4.081032785e-06
0.008479166667,3.78619734e-06
0.0085,3.500276762e-06
0.008520833333,3.235172017e-06
0.008541666667,2.965059366e-06
0.0085625,2.674142934e-06
0.008583333333,2.34788763e-06
0.008604166667,1.992896614e-06
0.008625,1.634258751e-06
0.008645833333,1.281096957e-06
0.008666666667,9.39704023e-07
0.0086875,5.837012509e-07
0.008708333333,1.977170427e-07
0.008729166667,-2.238841716e-07
0.00875,-6.658565894e-07
0.008770833333,-1.092372486e-06
0.008791666667,-1.494078901e-06
0.0088125,-1.861352075e-06
0.008833333333,-2.225849812e-06
0.008854166667,-2.598216952e-06
0.008875,-2.987073003e-06
0.008895833333,-3.375434289e-06
0.008916666667,-3.737280849e-06
0.0089375,-4.070176601e-06
0.008958333333,-4.375630397e-06
0.008979166667,-4.686485681e-06
0.009,-5.014714134e-06
0.009020833333,-5.36377047e-06
0.009041666667,-5.717924068e-06
0.0090625,-6.048782325e-06
0.009083333333,-6.355219739e-06
0.009104166667,-6.62977709e-06
0.009125,-6.898641914e-06
0.009145833333,-7.160578662e-06
0.009166666667,-7.41855365e-06
0.0091875,-7.654861292e-06
0.009208333333,-7.851025657e-06
0.009229166667,-8.006511052e-06
0.00925,-8.119292943e-06
0.009270833333,-8.213149158e-06
0.009291666667,-8.293851351e-06
0.0093125,-8.371275726e-06
0.009333333333,-8.440522834e-06
0.009354166667,-8.488207641e-06
0.009375,-8.515184163e-06
0.009395833333,-8.509686268e-06
0.009416666667,-8.491348126e-06
0.0094375,-8.457419426e-06
0.009458333333,-8.422340215e-06
0.009479166667,-8.375244761e-06
0.0095,-8.301999515e-06
0.009520833333,-8.190121662e-06
0.009541666667,-8.02312843e-06
0.0095625,-7.817207006e-06
0.009583333333,-7.57987118e-06
0.009604166667,-7.335137525e-06
0.009625,-7.084277058e-06
0.009645833333,-6.814012067e-06
0.009666666667,-6.514829693e-06
0.0096875,-6.168834716e-06
0.009708333333,-5.801895895e-06
0.009729166667,-5.426293683e-06
0.00975,-5.074778983e-06
0.009770833333,-4.739744327e-06
0.009791666667,-4.401721981e-06
0.0098125,-4.033540336e-06
0.009833333333,-3.614477237e-06
0.009854166667,-3.165504722e-06
0.009875,-2.703488917e-06
0.009895833333,-2.258592758e-06
0.009916666667,-1.821442993e-06
0.0099375,-1.367314553e-06
0.009958333333,-8.740896078e-07
0.009979166667,-3.2691608e-07
0.01,2.666170644e-07
0.01002083333,8.744615911e-07
0.01004166667,1.40037298e-06
0.0100625,1.853603067e-06
0.01008333333,2.276944087e-06
0.01010416667,2.718448968e-06
0.010125,3.201097343e-06
0.01014583333,3.710342753e-06
0.01016666667,4.203601293e-06
0.0101875,4.650270512e-06
0.01020833333,5.057750059e-06
0.01022916667,5.458475698e-06
0.01025,5.880065146e-06
0.01027083333,6.342662346e-06
0.01029166667,6.822014711e-06
0.0103125,7.297976481e-06
0.01033333333,7.731756341e-06
0.01035416667,8.128984518e-06
0.010375,8.483542842e-06
0.01039583333,8.815791261e-06
0.01041666667,9.123076779e-06
0.0104375,9.397989743e-06
0.01045833333,9.651884284e-06
0.01047916667,9.877701814e-06
0.0105,1.008467825e-05
0.01052083333,1.027739472e-05
0.01054166667,1.044892088e-05
0.0105625,1.059649185e-05
0.01058333333,1.070520193e-05
0.01060416667,1.078039531e-05
0.010625,1.081878054e-05
0.01064583333,1.084815176e-05
0.01066666667,1.085794884e-05
0.0106875,1.086775501e-05
0.01070833333,1.085946587e-05
0.01072916667,1.083167535e-05
0.01075,1.076652825e-05
0.01077083333,1.064584649e-05
0.01079166667,1.048338527e-05
0.0108125,1.027670532e-05
0.01083333333,1.005211288e-05
0.01085416667,9.823953405e-06
0.010875,9.573024727e-06
0.01089583333,9.293891708e-06
0.01091666667,8.931110642e-06
0.0109375,8.515474292e-06
0.01095833333,8.047059055e-06
0.01097916667,7.606297913e-06
0.011,7.209128398e-06
0.01102083333,6.859333553e-06
0.01104166667,6.528473023e-06
0.0110625,6.135329841e-06
0.01108333333,5.671379313e-06
0.01110416667,5.138509096e-06
0.011125,4.582053407e-06
0.01114583333,4.051596989e-06
0.01116666667,3.545105073e-06
0.0111875,3.051667136e-06
0.01120833333,2.492338126e-06
0.01122916667,1.874980626e-06
0.01125,1.195911636e-06
0.01127083333,5.203947921e-07
0.01129166667,-1.15933716e-07
0.0113125,-6.89516412e-07
0.01133333333,-1.225185088e-06
0.01135416667,-1.762522857e-06
0.011375,-2.314516678e-06
0.01139583333,-2.882916306e-06
0.01141666667,-3.447265954e-06
0.0114375,-3.989256584e-06
0.01145833333,-4.521492883e-06
0.01147916667,-5.033820798e-06
0.0115,-5.569974292e-06
0.01152083333,-6.095085155e-06
0.01154166667,-6.620972727e-06
0.0115625,-7.116201687e-06
0.01158333333,-7.587696018e-06
0.01160416667,-8.055276339e-06
0.011625,-8.510973203e-06
0.01164583333,-8.971868738e-06
0.01166666667,-9.418402442e-06
0.0116875,-9.816255442e-06
0.01170833333,-1.015663474e-05
0.01172916667,-1.042445365e-05
0.01175,-1.064661228e-05
0.01177083333,-1.083669576e-05
0.01179166667,-1.103000614e-05
0.0118125,-1.120452725e-05
0.01183333333,-1.138121388e-05
0.01185416667,-1.152191726e-05
0.011875,-1.162058834e-05
0.01189583333,-1.169656116e-05
0.01191666667,-1.173565124e-05
0.0119375,-1.17710315e-05
0.01195833333,-1.180997242e-05
0.01197916667,-1.183113454e-05
0.012,-1.183128643e-05
0.01202083333,-1.174354838e-05
0.01204166667,-1.158483428e-05
0.0120625,-1.133902333e-05
0.01208333333,-1.106552827e-05
0.01210416667,-1.075927048e-05
0.012125,-1.045680892e-05
0.01214583333,-1.01666792e-05
0.01216666667,-9.855221833e-06
0.0121875,-9.492496247e-06
0.01220833333,-9.092870641e-06
0.01222916667,-8.662867913e-06
0.01225,-8.24764993e-06
0.01227083333,-7.829958122e-06
0.01229166667,-7.405035376e-06
0.0123125,-6.941837455e-06
0.01233333333,-6.453288279e-06
0.01235416667,-5.894956303e-06
0.012375,-5.32148033e-06
0.01239583333,-4.744120815e-06
0.01241666667,-4.172142326e-06
0.0124375,-3.573355116e-06
0.01245833333,-2.95896939e-06
0.01247916667,-2.313454615e-06
0.0125,-1.652649075e-06
0.01252083333,-9.995903838e-07
0.01254166667,-3.671084698e-07
0.0125625,2.797248726e-07
0.01258333333,9.201660305e-07
0.01260416667,1.581987021e-06
0.012625,2.233595751e-06
0.01264583333,2.854344984e-06
0.01266666667,3.415977744e-06
0.0126875,3.957027275e-06
0.01270833333,4.489879757e-06
0.01272916667,5.056869213e-06
0.01275,5.655007044e-06
0.01277083333,6.293082606e-06
0.01279166667,6.872791801e-06
0.0128125,7.415037544e-06
0.01283333333,7.90568447e-06
0.01285416667,8.372542652e-06
0.012875,8.864455594e-06
0.01289583333,9.376115486e-06
0.01291666667,9.859179045e-06
0.0129375,1.028865427e-05
0.01295833333,1.063180207e-05
0.01297916667,1.090098431e-05
0.013,1.111995971e-05
0.01302083333,1.136305946e-05
0.01304166667,1.159835847e-05
0.0130625,1.184768917e-05
0.01308333333,1.204344426e-05
0.01310416667,1.216222608e-05
0.013125,1.223509389e-05
0.01314583333,1.227206485e-05
0.01316666667,1.230058479e-05
0.0131875,1.236344269e-05
0.01320833333,1.241168047e-05
0.01322916667,1.242008238e-05
0.01325,1.238808727e-05
0.01327083333,1.225198321e-05
0.01329166667,1.204416367e-05
0.0133125,1.186519148e-05
0.01333333333,1.163398429e-05
0.01335416667,1.140809491e-05
0.013375,1.11413874e-05
0.01339583333,1.078200785e-05
0.01341666667,1.035114747e-05
0.0134375,9.842748113e-06
0.01345833333,9.306233551e-06
0.01347916667,8.855836313e-06
0.0135,8.449753295e-06
0.01352083333,8.103582331e-06
0.01354166667,7.729062418e-06
0.0135625,7.298051969e-06
0.01358333333,6.747909993e-06
0.01360416667,6.128610494e-06
0.013625,5.473810688e-06
0.01364583333,4.864122275e-06
0.01366666667,4.294500286e-06
0.0136875,3.745811455e-06
0.01370833333,3.149090162e-06
0.01372916667,2.484860943e-06
0.01375,1.720052524e-06
0.01377083333,9.084416206e-07
0.01379166667,1.411414985e-07
0.0138125,-5.470777751e-07
0.01383333333,-1.128008194e-06
0.01385416667,-1.64481321e-06
0.013875,-2.206468253e-06
0.01389583333,-2.771394747e-06
0.01391666667,-3.40172096e-06
0.0139375,-4.075765446e-06
0.01395833333,-4.748180345e-06
0.01397916667,-5.410632184e-06
0.014,-6.02266573e-06
0.01402083333,-6.530445717e-06
0.01404166667,-6.983462754e-06
0.0140625,-7.396050478e-06
0.01408333333,-7.826100045e-06
0.01410416667,-8.318579603e-06
0.014125,-8.934795915e-06
0.01414583333,-9.582606253e-06
0.01416666667,-1.016921851e-05
0.0141875,-1.060372779e-05
0.01420833333,-1.082118251e-05
0.01422916667,-1.090558726e-05
0.01425,-1.102143597e-05
0.01427083333,-1.1200068e-05
0.01429166667,-1.153298126e-05
0.0143125,-1.1902197e-05
0.01433333333,-1.212869211e-05
0.01435416667,-1.211986455e-05
0.014375,-1.190306466e-05
0.01439583333,-1.165196318e-05
0.01441666667,-1.157104816e-05
0.0144375,-1.167134269e-05
0.01445833333,-1.199176222e-05
0.01447916667,-1.22766678e-05
0.0145,-1.239302128e-05
0.01452083333,-1.217198587e-05
0.01454166667,-1.166556194e-05
0.0145625,-1.103040631e-05
0.01458333333,-1.044902274e-05
0.01460416667,-1.002245153e-05
0.014625,-9.811529708e-06
0.01464583333,-9.645922546e-06
0.01466666667,-9.446494914e-06
0.0146875,-9.054901057e-06
0.01470833333,-8.471540241e-06
0.01472916667,-7.779571206e-06
0.01475,-7.123964224e-06
0.01477083333,-6.588121323e-06
0.01479166667,-6.192371529e-06
0.0148125,-5.872620022e-06
0.01483333333,-5.457119642e-06
0.01485416667,-4.772626198e-06
0.014875,-3.813460125e-06
0.01489583333,-2.789962309e-06
0.01491666667,-1.824272886e-06
0.0149375,-1.122001436e-06
0.01495833333,-7.527376624e-07
0.01497916667,-5.36146274e-07
0.015,-3.192311055e-07
0.01502083333,1.952275852e-07
0.01504166667,1.037257562e-06
0.0150625,2.138806167e-06
0.01508333333,3.344048082e-06
0.01510416667,4.464629001e-06
0.015125,5.264565516e-06
0.01514583333,5.80073538e-06
0.01516666667,6.114518328e-06
0.0151875,6.428180313e-06
0.01520833333,6.825548553e-06
0.01522916667,7.383606771e-06
0.01525,8.033774975e-06
0.01527083333,8.729784895e-06
0.01529166667,9.314558156e-06
0.0153125,9.741232134e-06
0.01533333333,1.007753963e-05
0.01535416667,1.046261787e-05
0.015375,1.089488796e-05
0.01539583333,1.161914952e-05
0.01541666667,1.241473365e-05
0.0154375,1.313312805e-05
0.01545833333,1.35672617e-05
0.01547916667,1.363743104e-05
0.0155,1.340227027e-05
0.01552083333,1.303615318e-05
0.01554166667,1.283782512e-05
0.0155625,1.288328167e-05
0.01558333333,1.317207989e-05
0.01560416667,1.356190387e-05
0.015625,1.377919307e-05
0.01564583333,1.385492214e-05
0.01566666667,1.370207065e-05
0.0156875,1.347030775e-05
0.01570833333,1.32716541e-05
0.01572916667,1.318178965e-05
0.01575,1.304414127e-05
0.01577083333,1.280845936e-05
0.01579166667,1.240388337e-05
0.0158125,1.181026801e-05
0.01583333333,1.124108894e-05
0.01585416667,1.073195654e-05
0.015875,1.036304639e-05
0.01589583333,1.008155596e-05
0.01591666667,9.697945643e-06
0.0159375,9.236085134e-06
0.01595833333,8.506177437e-06
0.01597916667,7.760488188e-06
0.016,6.989534995e-06
0.01602083333,6.325134564e-06
0.01604166667,5.718261036e-06
0.0160625,5.17663284e-06
0.01608333333,4.524076303e-06
0.01610416667,3.6912827e-06
0.016125,2.838602995e-06
0.01614583333,1.98335556e-06
0.01616666667,1.294057029e-06
0.0161875,6.75727108e-07
0.01620833333,1.120585793e-07
0.01622916667,-4.623400116e-07
0.01625,-1.26063776e-06
0.01627083333,-2.218019517e-06
0.01629166667,-3.360898972e-06
0.0163125,-4.453597285e-06
0.01633333333,-5.411203801e-06
0.01635416667,-6.108657544e-06
0.016375,-6.617313375e-06
0.01639583333,-7.057989933e-06
0.01641666667,-7.455693321e-06
0.0164375,-7.999002264e-06
0.01645833333,-8.68355346e-06
0.01647916667,-9.5943833e-06
0.0165,-1.04216515e-05
0.01652083333,-1.108530341e-05
0.01654166667,-1.159251769e-05
0.0165625,-1.189987415e-05
0.01658333333,-1.229253121e-05
0.01660416667,-1.262413116e-05
0.016625,-1.326178699e-05
0.01664583333,-1.389510089e-05
0.01666666667,-1.453035838e-05
0.0166875,-1.495717333e-05
0.01670833333,-1.508762762e-05
0.01672916667,-1.509393587e-05
0.01675,-1.49557718e-05
0.01677083333,-1.490335944e-05
0.01679166667,-1.510962193e-05
0.0168125,-1.543301551e-05
0.01683333333,-1.568537118e-05
0.01685416667,-1.57561426e-05
0.016875,-1.54820882e-05
0.01689583333,-1.490374507e-05
0.01691666667,-1.436754246e-05
0.0169375,-1.396340213e-05
0.01695833333,-1.39868398e-05
0.01697916667,-1.422111291e-05
0.017,-1.454888752e-05
0.01702083333,-1.45312224e-05
0.01704166667,-1.406330648e-05
0.0170625,-1.32564619e-05
0.01708333333,-1.217791487e-05
0.01710416667,-1.12500793e-05
0.017125,-1.051241543e-05
0.01714583333,-1.000244083e-05
0.01716666667,-9.565521395e-06
0.0171875,-8.912204066e-06
0.01720833333,-8.137641998e-06
0.01722916667,-7.17373814e-06
0.01725,-6.309306627e-06
0.01727083333,-5.588807198e-06
0.01729166667,-5.116079137e-06
0.0173125,-4.748817446e-06
0.01733333333,-4.333004654e-06
0.01735416667,-3.680706868e-06
0.017375,-2.648037935e-06
0.01739583333,-1.338353968e-06
0.01741666667,2.106486221e-07
0.0174375,1.725776656e-06
0.01745833333,2.913811386e-06
0.01747916667,3.762756251e-06
0.0175,4.257781256e-06
0.01752083333,4.451301265e-06
0.01754166667,4.821748917e-06
0.0175625,5.599723863e-06
0.01758333333,6.682611911e-06
0.01760416667,7.978119356e-06
0.017625,9.321410289e-06
0.01764583333,1.022559718e-05
0.01766666667,1.083921416e-05
0.0176875,1.130179771e-05
0.01770833333,1.187703401e-05
0.01772916667,1.264880484e-05
0.01775,1.362602052e-05
0.01777083333,1.459520718e-05
0.01779166667,1.516225529e-05
0.0178125,1.558806252e-05
0.01783333333,1.568737389e-05
0.01785416667,1.595262984e-05
0.017875,1.628741484e-05
0.01789583333,1.69296618e-05
0.01791666667,1.769053597e-05
0.0179375,1.841511221e-05
0.01795833333,1.908579907e-05
0.01797916667,1.949717807e-05
0.018,1.967374192e-05
0.01802083333,1.956014239e-05
0.01804166667,1.915276334e-05
0.0180625,1.887630606e-05
0.01808333333,1.848507054e-05
0.01810416667,1.83699849e-05
0.018125,1.832691123e-05
0.01814583333,1.847611384e-05
0.01816666667,1.86796351e-05
0.0181875,1.866543971e-05
0.01820833333,1.847877684e-05
0.01822916667,1.813021663e-05
0.01825,1.771619827e-05
0.01827083333,1.713745223e-05
0.01829166667,1.667309516e-05
0.0183125,1.60381569e-05
0.01833333333,1.543592407e-05
0.01835416667,1.491181138e-05
0.018375,1.409106881e-05
0.01839583333,1.334659828e-05
0.01841666667,1.24448552e-05
0.0184375,1.145795159e-05
0.01845833333,1.053006235e-05
0.01847916667,9.714530279e-06
0.0185,9.214318197e-06
0.01852083333,8.659572813e-06
0.01854166667,8.051611985e-06
0.0185625,6.957579899e-06
0.01858333333,5.795753168e-06
0.01860416667,4.452082067e-06
0.018625,3.112812692e-06
0.01864583333,2.23986558e-06
0.01866666667,1.503650992e-06
0.0186875,9.514037629e-07
0.01870833333,1.364844167e-07
0.01872916667,-8.600495107e-07
0.01875,-2.201134976e-06
0.01877083333,-3.54901772e-06
0.01879166667,-4.816689852e-06
0.0188125,-6.054663118e-06
0.01883333333,-6.849837519e-06
0.01885416667,-7.719973837e-06
0.018875,-8.475760296e-06
0.01889583333,-9.253903045e-06
0.01891666667,-1.019145657e-05
0.0189375,-1.103139584e-05
0.01895833333,-1.200065526e-05
0.01897916667,-1.288894691e-05
0.019,-1.369509391e-05
0.01902083333,-1.422287551e-05
0.01904166667,-1.481974414e-05
0.0190625,-1.541046549e-05
0.01908333333,-1.610859363e-05
0.01910416667,-1.70313142e-05
0.019125,-1.801304643e-05
0.01914583333,-1.886690006e-05
0.01916666667,-1.925940342e-05
0.0191875,-1.937366324e-05
0.01920833333,-1.92841926e-05
0.01922916667,-1.904511373e-05
0.01925,-1.93832293e-05
0.01927083333,-1.993025398e-05
0.01929166667,-2.064501678e-05
0.0193125,-2.127383596e-05
0.01933333333,-2.13267067e-05
0.01935416667,-2.089508052e-05
0.019375,-2.022011176e-05
0.01939583333,-1.958087705e-05
0.01941666667,-1.931760926e-05
0.0194375,-1.95259945e-05
0.01945833333,-1.998474909e-05
0.01947916667,-2.029055395e-05
0.0195,-2.013901576e-05
0.01952083333,-1.935871842e-05
0.01954166667,-1.832348062e-05
0.0195625,-1.71328993e-05
0.01958333333,-1.629736653e-05
0.01960416667,-1.579115815e-05
0.019625,-1.56148617e-05
0.01964583333,-1.542028622e-05
0.01966666667,-1.484477798e-05
0.0196875,-1.405463263e-05
0.01970833333,-1.271812198e-05
0.01972916667,-1.131733006e-05
0.01975,-1.020632772e-05
0.01977083333,-9.34428499e-06
0.01979166667,-9.237731319e-06
0.0198125,-9.084139492e-06
0.01983333333,-8.665008863e-06
0.01985416667,-7.652641216e-06
0.019875,-5.816787052e-06
0.01989583333,-3.488543598e-06
0.01991666667,-1.333209411e-06
0.0199375,2.615074663e-07
0.01995833333,9.757254702e-07
0.01997916667,6.675057875e-07
0.02,-3.474940513e-08
0.02002083333,2.538951094e-07
0.02004166667,1.3453473e-06
0.0200625,3.127120635e-06
0.02008333333,5.164905815e-06
0.02010416667,6.74361263e-06
0.020125,7.615522009e-06
0.02014583333,8.062104826e-06
0.02016666667,8.238233931e-06
0.0201875,9.098428563e-06
0.02020833333,1.069657264e-05
0.02022916667,1.248738772e-05
0.02025,1.424864513e-05
0.02027083333,1.508420883e-05
0.02029166667,1.498568872e-05
0.0203125,1.444176905e-05
0.02033333333,1.391151363e-05
0.02035416667,1.417254589e-05
0.020375,1.524466552e-05
0.02039583333,1.691173748e-05
0.02041666667,1.830652036e-05
0.0204375,1.938753121e-05
0.02045833333,1.980000525e-05
0.02047916667,1.957620771e-05
0.0205,1.930123472e-05
0.02052083333,1.91883446e-05
0.02054166667,1.955222069e-05
0.0205625,2.005926035e-05
0.02058333333,2.064691398e-05
0.02060416667,2.073536416e-05
0.020625,2.065673107e-05
0.02064583333,2.015692007e-05
0.02066666667,1.940985021e-05
0.0206875,1.912537118e-05
0.02070833333,1.893699846e-05
0.02072916667,1.916485417e-05
0.02075,1.94400327e-05
0.02077083333,1.919541501e-05
0.02079166667,1.856587733e-05
0.0208125,1.747612805e-05
0.02083333333,1.630249244e-05
0.02085416667,1.530327245e-05
0.020875,1.470960342e-05
0.02089583333,1.437818719e-05
0.02091666667,1.421184697e-05
0.0209375,1.401015834e-05
0.02095833333,1.362305557e-05
0.02097916667,1.270658231e-05
0.021,1.142748897e-05
0.02102083333,1.006970888e-05
0.02104166667,8.803455785e-06
0.0210625,8.080929547e-06
0.02108333333,7.321219073e-06
0.02110416667,6.562455383e-06
0.021125,5.738807886e-06
0.02114583333,4.334051937e-06
0.02116666667,2.668680963e-06
0.0211875,4.720959623e-07
0.02120833333,-1.263064178e-06
0.02122916667,-2.509250862e-06
0.02125,-3.197131036e-06
0.02127083333,-3.401397862e-06
0.02129166667,-3.750264341e-06
0.0213125,-4.545848242e-06
0.02133333333,-5.759257874e-06
0.02135416667,-7.129459391e-06
0.021375,-8.458184311e-06
0.02139583333,-9.533790944e-06
0.02141666667,-1.060699014e-05
0.0214375,-1.146483555e-05
0.02145833333,-1.231810256e-05
0.02147916667,-1.342399082e-05
0.0215,-1.434607748e-05
0.02152083333,-1.524439813e-05
0.02154166667,-1.59920055e-05
0.0215625,-1.669453923e-05
0.02158333333,-1.756021447e-05
0.02160416667,-1.861053534e-05
0.021625,-1.963444083e-05
0.02164583333,-2.047380258e-05
0.02166666667,-2.134362694e-05
0.0216875,-2.177220449e-05
0.02170833333,-2.232683983e-05
0.02172916667,-2.287918869e-05
0.02175,-2.355785909e-05
0.02177083333,-2.424810009e-05
0.02179166667,-2.431731991e-05
0.0218125,-2.397320713e-05
0.02183333333,-2.340527499e-05
0.02185416667,-2.26178563e-05
0.021875,-2.236823457e-05
0.02189583333,-2.247361954e-05
0.02191666667,-2.310013588e-05
0.0219375,-2.446095823e-05
0.02195833333,-2.538711306e-05
0.02197916667,-2.612038406e-05
0.022,-2.639781087e-05
0.02202083333,-2.577564919e-05
0.02204166667,-2.482454511e-05
0.0220625,-2.400700942e-05
0.02208333333,-2.316764585e-05
0.02210416667,-2.30540445e-05
0.022125,-2.330890493e-05
0.02214583333,-2.298870641e-05
0.02216666667,-2.278455759e-05
0.0221875,-2.160201439e-05
0.02220833333,-1.977917964e-05
0.02222916667,-1.76216472e-05
0.02225,-1.550778325e-05
0.02227083333,-1.511369192e-05
0.02229166667,-1.625260666e-05
0.0223125,-1.818235251e-05
0.02233333333,-1.946444172e-05
0.02235416667,-1.907463957e-05
0.022375,-1.648281614e-05
0.02239583333,-1.233197509e-05
0.02241666667,-8.737690223e-06
0.0224375,-7.114208074e-06
0.02245833333,-8.01139231e-06
0.02247916667,-1.048906597e-05
0.0225,-1.232669001e-05
0.02252083333,-1.212886127e-05
0.02254166667,-9.963961929e-06
0.0225625,-6.662366104e-06
0.02258333333,-3.633558208e-06
0.02260416667,-1.785024779e-06
0.022625,-1.338898073e-06
0.02264583333,-1.471124051e-06
0.02266666667,-1.337010872e-06
0.0226875,-7.258545338e-07
0.02270833333,7.380276656e-08
0.02272916667,9.565010259e-07
0.02275,2.04848584e-06
0.02277083333,3.282535545e-06
0.02279166667,4.354829798e-06
0.0228125,4.861055004e-06
0.02283333333,5.163720743e-06
0.02285416667,4.814478416e-06
0.022875,4.442719273e-06
0.02289583333,5.31473097e-06
0.02291666667,6.900147127e-06
0.0229375,8.856142813e-06
0.02295833333,1.044684723e-05
0.02297916667,1.060076647e-05
0.023,9.692757885e-06
0.02302083333,8.578410416e-06
0.02304166667,7.977640053e-06
0.0230625,8.589859135e-06
0.02308333333,9.746126125e-06
0.02310416667,1.02140566e-05
0.023125,9.902048987e-06
0.02314583333,8.95928315e-06
0.02316666667,8.024372619e-06
0.0231875,7.40477708e-06
0.02320833333,8.402488675e-06
0.02322916667,9.247867638e-06
0.02325,9.804763977e-06
0.02327083333,9.468615644e-06
0.02329166667,8.236396752e-06
0.0233125,6.716861208e-06
0.02333333333,5.424782103e-06
0.02335416667,5.130584668e-06
0.023375,5.468971267e-06
0.02339583333,6.373591077e-06
0.02341666667,7.120547707e-06
0.0234375,7.626545084e-06
0.02345833333,7.850117981e-06
0.02347916667,7.189189546e-06
0.0235,6.054488949e-06
0.02352083333,3.680239843e-06
0.02354166667,8.471288311e-07
0.0235625,-1.877145678e-06
0.02358333333,-3.917511094e-06
0.02360416667,-4.774045465e-06
0.023625,-4.33490186e-06
0.02364583333,-3.631364507e-06
0.02366666667,-3.622961231e-06
0.0236875,-4.501527656e-06
0.02370833333,-7.649241525e-06
0.02372916667,-1.085897929e-05
0.02375,-1.307694947e-05
0.02377083333,-1.354878805e-05
0.02379166667,-1.268120468e-05
0.0238125,-1.120408524e-05
0.02383333333,-1.224482367e-05
0.02385416667,-1.449281717e-05
0.023875,-1.735974729e-05
0.02389583333,-1.987176074e-05
0.02391666667,-2.009466516e-05
0.0239375,-1.897069706e-05
0.02395833333,-1.783909647e-05
0.02397916667,-1.777981743e-05
0.024,-1.958072062e-05
0.02402083333,-2.240647518e-05
0.02404166667,-2.456362017e-05
0.0240625,-2.574633618e-05
0.02408333333,-2.554570892e-05
0.02410416667,-2.412620961e-05
0.024125,-2.313074401e-05
0.02414583333,-2.261247573e-05
0.02416666667,-2.327166476e-05
0.0241875,-2.489758481e-05
0.02420833333,-2.739172487e-05
0.02422916667,-3.001371806e-05
0.02425,-3.204717359e-05
0.02427083333,-3.286435094e-05
0.02429166667,-3.252677197e-05
0.0243125,-3.190753705e-05
0.02433333333,-3.122887574e-05
0.02435416667,-3.054677654e-05
0.024375,-3.039996227e-05
0.02439583333,-2.985445099e-05
0.02441666667,-2.876283543e-05
0.0244375,-2.779613715e-05
0.02445833333,-2.740316631e-05
0.02447916667,-2.781895091e-05
0.0245,-2.89204454e-05
0.02452083333,-2.983605373e-05
0.02454166667,-2.9227509e-05
0.0245625,-2.871351171e-05
0.02458333333,-2.782669253e-05
0.02460416667,-2.676680015e-05
0.024625,-2.559131826e-05
0.02464583333,-2.394931471e-05
0.02466666667,-2.166971171e-05
0.0246875,-1.962462193e-05
0.02470833333,-1.855983646e-05
0.02472916667,-1.862762656e-05
0.02475,-1.959814836e-05
0.02477083333,-1.970517587e-05
0.02479166667,-1.941255869e-05
0.0248125,-1.8993087e-05
0.02483333333,-1.919540045e-05
0.02485416667,-2.079061233e-05
0.024875,-2.326394315e-05
0.02489583333,-2.4238474e-05
0.02491666667,-2.23056777e-05
0.0249375,-1.842568963e-05
0.02495833333,-1.301782504e-05
0.02497916667,-8.194531802e-06
0.025,-5.327553481e-06
0.02502083333,-3.767545877e-06
0.02504166667,-3.691847269e-06
0.0250625,-3.738085979e-06
0.02508333333,-3.067857506e-06
0.02510416667,-2.104448868e-06
0.025125,-6.975146789e-07
0.02514583333,1.825362006e-06
0.02516666667,4.349078154e-06
0.0251875,5.918785064e-06
0.02520833333,7.180425655e-06
0.02522916667,6.479641343e-06
0.02525,6.648007002e-06
0.02527083333,7.322758393e-06
0.02529166667,8.062415873e-06
0.0253125,7.17903913e-06
0.02533333333,4.773816272e-06
0.02535416667,6.169739208e-07
0.025375,-3.052987267e-06
0.02539583333,-4.080608051e-06
0.02541666667,-9.454761312e-07
0.0254375,4.578725111e-06
0.02545833333,1.11737927e-05
0.02547916667,1.506787794e-05
0.0255,1.576396426e-05
0.02552083333,1.42707122e-05
0.02554166667,1.328820599e-05
0.0255625,1.281534878e-05
0.02558333333,1.375396096e-05
0.02560416667,1.499883365e-05
0.025625,1.474470355e-05
0.02564583333,1.483594497e-05
0.02566666667,1.435247759e-05
0.0256875,1.399804933e-05
0.02570833333,1.237644119e-05
0.02572916667,8.27527947e-06
0.02575,3.234568794e-06
0.02577083333,-8.581055226e-07
0.02579166667,-2.940285412e-06
0.0258125,-1.25513634e-06
0.02583333333,2.059656254e-06
0.02585416667,6.153478353e-06
0.025875,9.102061995e-06
0.02589583333,1.143173085e-05
0.02591666667,1.205474655e-05
0.0259375,1.18227581e-05
0.02595833333,1.296680966e-05
0.02597916667,1.260704357e-05
0.026,1.087407418e-05
0.02602083333,9.225011127e-06
0.02604166667,7.02142097e-06
0.0260625,4.040120984e-06
0.02608333333,1.339149549e-06
0.02610416667,-1.433935267e-06
0.026125,-3.013148671e-06
0.02614583333,-4.397099474e-06
0.02616666667,-5.44010345e-06
0.0261875,-7.425499007e-06
0.02620833333,-1.03311213e-05
0.02622916667,-1.44193491e-05
0.02625,-1.601979056e-05
0.02627083333,-1.597362643e-05
0.02629166667,-1.246783813e-05
0.0263125,-9.574923752e-06
0.02633333333,-7.661132258e-06
0.02635416667,-9.722278264e-06
0.026375,-1.262595106e-05
0.02639583333,-1.472454278e-05
0.02641666667,-1.34957063e-05
0.0264375,-1.133313435e-05
0.02645833333,-7.846756489e-06
0.02647916667,-7.961087249e-06
0.0265,-9.483189388e-06
0.02652083333,-1.255312236e-05
0.02654166667,-1.414471626e-05
0.0265625,-1.497209905e-05
0.02658333333,-1.6132155e-05
0.02660416667,-1.839233119e-05
0.026625,-2.185223275e-05
0.02664583333,-2.395193223e-05
0.02666666667,-2.26377706e-05
0.0266875,-2.014873826e-05
0.02670833333,-1.831217196e-05
0.02672916667,-2.036690421e-05
0.02675,-2.516787572e-05
0.02677083333,-2.875540304e-05
0.02679166667,-2.607948045e-05
0.0268125,-1.829178109e-05
0.02683333333,-8.778439224e-06
0.02685416667,-2.828770448e-06
0.026875,-3.956840374e-06
0.02689583333,-8.703404092e-06
0.02691666667,-1.41008768e-05
0.0269375,-1.624559263e-05
0.02695833333,-1.486276415e-05
0.02697916667,-1.470015741e-05
0.027,-1.798979065e-05
0.02702083333,-2.218289228e-05
0.02704166667,-2.262676935e-05
0.0270625,-1.996791252e-05
0.02708333333,-1.281010009e-05
0.02710416667,-6.819838291e-06
0.027125,-4.159327091e-06
0.02714583333,-5.653115295e-06
0.02716666667,-8.312116734e-06
0.0271875,-7.34287687e-06
0.02720833333,-3.023262934e-06
0.02722916667,3.659382401e-06
0.02725,1.121588139e-05
0.02727083333,1.529847032e-05
0.02729166667,1.614772373e-05
0.0273125,1.101698399e-05
0.02733333333,2.521869419e-06
0.02735416667,-8.014933883e-06
0.027375,-1.50417336e-05
0.02739583333,-1.699540371e-05
0.02741666667,-1.192133459e-05
0.0274375,-4.697261375e-06
0.02745833333,2.172446784e-06
0.02747916667,3.917947652e-06
0.0275,4.908871688e-06
0.02752083333,6.897246749e-06
0.02754166667,1.506013905e-05
0.0275625,2.48874876e-05
0.02758333333,3.25242072e-05
0.02760416667,3.045815174e-05
0.027625,2.302577195e-05
0.02764583333,1.839397009e-05
0.02766666667,2.131768815e-05
0.0276875,3.196729449e-05
0.02770833333,4.390534377e-05
0.02772916667,4.948039714e-05
0.02775,4.574985724e-05
0.02777083333,3.602651486e-05
0.02779166667,2.874751226e-05
0.0278125,2.688239329e-05
0.02783333333,3.066893987e-05
0.02785416667,3.047384052e-05
0.027875,2.349118768e-05
0.02789583333,1.433576745e-05
0.02791666667,1.049002549e-05
0.0279375,1.906840043e-05
0.02795833333,3.738343366e-05
0.02797916667,5.179111031e-05
0.028,5.470158794e-05
0.02802083333,4.931052536e-05
0.02804166667,3.796106103e-05
0.0280625,3.161679342e-05
0.02808333333,3.367960744e-05
0.02810416667,3.881938756e-05
0.028125,4.5220826e-05
0.02814583333,4.856138185e-05
0.02816666667,5.135021638e-05
0.0281875,5.46391384e-05
0.02820833333,5.384908582e-05
0.02822916667,4.39729738e-05
0.02825,2.269393735e-05
0.02827083333,-4.467610779e-07
0.02829166667,-1.397765573e-05
0.0283125,-8.443326806e-06
0.02833333333,1.410573623e-05
0.02835416667,4.108667417e-05
0.028375,6.320759712e-05
0.02839583333,6.935114652e-05
0.02841666667,6.288748409e-05
0.0284375,4.8942391e-05
0.02845833333,3.839065903e-05
0.02847916667,3.467058559e-05
0.0285,3.726003342e-05
0.02852083333,4.018676191e-05
0.02854166667,3.570818444e-05
0.0285625,2.598979881e-05
0.02858333333,1.157503357e-05
0.02860416667,-2.551349326e-06
0.028625,-7.730905054e-06
0.02864583333,6.998420758e-07
0.02866666667,1.701022302e-05
0.0286875,2.93710491e-05
0.02870833333,2.437687908e-05
0.02872916667,-9.330611874e-07
0.02875,-3.534161442e-05
0.02877083333,-5.238688027e-05
0.02879166667,-4.694350719e-05
0.0288125,-1.793841875e-05
0.02883333333,1.012597204e-05
0.02885416667,1.611500193e-05
0.028875,-5.925538517e-06
0.02889583333,-3.909934458e-05
0.02891666667,-6.121103797e-05
0.0289375,-5.398229041e-05
0.02895833333,-2.551476064e-05
0.02897916667,-6.363331977e-06
0.029,-1.108327069e-05
0.02902083333,-2.733813744e-05
0.02904166667,-4.66624042e-05
0.0290625,-4.275766696e-05
0.02908333333,-2.763066368e-05
0.02910416667,-1.251517006e-05
0.029125,-2.195236448e-05
0.02914583333,-4.428991815e-05
0.02916666667,-6.717741053e-05
0.0291875,-7.453990111e-05
0.02920833333,-6.413862866e-05
0.02922916667,-5.77662795e-05
0.02925,-6.762772682e-05
0.02927083333,-8.928746684e-05
0.02929166667,-0.0001050971914
0.0293125,-9.294893243e-05
0.02933333333,-5.849972513e-05
0.02935416667,-2.259283065e-05
0.029375,-2.294639307e-05
0.02939583333,-4.895132224e-05
0.02941666667,-7.807967631e-05
0.0294375,-8.207588689e-05
0.02945833333,-5.755914026e-05
0.02947916667,-4.035128222e-05
0.0295,-5.351255095e-05
0.02952083333,-0.0001046262623
0.02954166667,-0.0001667153992
0.0295625,-0.0001773627155
0.02958333333,-0.0001094425825
0.02960416667,7.944661775e-06
0.029625,0.0001106668715
0.02964583333,0.0001452517172
0.02966666667,0.0001079144495
0.0296875,3.016671144e-05
0.02970833333,-3.099455716e-05
0.02972916667,-6.917394785e-05
0.02975,-8.272800187e-05
0.02977083333,-0.0001021917342
0.02979166667,-9.721952665e-05
0.0298125,-4.654339136e-05
0.02983333333,6.543041673e-05
0.02985416667,0.0001580626413
0.029875,0.0001405873336
0.02989583333,-2.661054532e-05
0.02991666667,-0.0003110381076
0.0299375,-0.0005564347957
0.02995833333,-0.0005674259737
0.02997916667,-0.0003972092818
0.03,0.0004287342599
0.03002083333,0.0006119351601
0.03004166667,0.0006152048009
0.0300625,0.0003791556519
0.03008333333,9.419442358e-05
0.03010416667,-7.867977547e-05
0.030125,-0.0001000185148
0.03014583333,-1.347174293e-05
0.03016666667,0.0001016152819
0.0301875,0.0001557731448
0.03020833333,0.000166577287
0.03022916667,0.0001559259545
0.03025,0.0001494316675
0.03027083333,0.0001082424496
0.03029166667,3.334396024e-05
0.0303125,-6.504580233e-05
0.03033333333,-0.0001144309863
0.03035416667,-7.761055167e-05
0.030375,4.445654849e-05
0.03039583333,0.0001856681774
0.03041666667,0.0002738019975
0.0304375,0.0002618838625
0.03045833333,0.0001936805638
0.03047916667,0.0001272933005
0.0305,0.0001066989716
0.03052083333,0.0001220876438
0.03054166667,0.0001543044782
0.0305625,0.0001555188501
0.03058333333,0.0001302825112
0.03060416667,0.0001087236087
0.030625,0.0001131806639
0.03064583333,0.000154359077
0.03066666667,0.0001938451751
0.0306875,0.0002033764031
0.03070833333,0.0001862873614
0.03072916667,0.0001639450784
0.03075,0.0001662929426
0.03077083333,0.0001848885295
0.03079166667,0.0002018610685
0.0308125,0.0001905659155
0.03083333333,0.0001565514831
0.03085416667,0.0001204346627
0.030875,0.0001018566763
0.03089583333,0.000119870987
0.03091666667,0.000138412026
0.0309375,0.0001473004959
0.03095833333,0.0001282647718
0.03097916667,0.0001184619614
0.031,0.0001250922796
0.03102083333,0.000163421224
0.03104166667,0.000207917401
0.0310625,0.000217606168
0.03108333333,0.0001798749872
0.03110416667,0.000129441265
0.031125,9.350226173e-05
0.03114583333,0.0001110017765
0.03116666667,0.0001613846107
0.0311875,0.0002141841251
0.03120833333,0.0002288070536
0.03122916667,0.0002032911434
0.03125,0.0001467133407
0.03127083333,0.0001003820507
0.03129166667,8.543202421e-05
0.0313125,0.0001065590477
0.03133333333,0.0001371277322
0.03135416667,0.0001656575332
0.031375,0.0001643172
0.03139583333,0.0001513585739
0.03141666667,0.0001369725214
0.0314375,0.0001237840479
0.03145833333,0.0001162026383
0.03147916667,0.0001229910413
0.0315,0.0001286256011
0.03152083333,0.0001293794776
0.03154166667,0.0001197234815
0.0315625,9.853449592e-05
0.03158333333,8.900462853e-05
0.03160416667,9.988102829e-05
0.031625,0.0001379010791
0.03164583333,0.0001847278618
0.03166666667,0.0002265234652
0.0316875,0.0002389660513
0.03170833333,0.0002179371804
0.03172916667,0.0001766289206
0.03175,0.000141585333
0.03177083333,0.0001237138495
0.03179166667,0.0001188215319
0.0318125,0.0001185948495
0.03183333333,0.0001264505117
0.03185416667,0.0001276088733
0.031875,0.0001466123649
0.03189583333,0.0001642767165
0.03191666667,0.0001732798119
0.0319375,0.0001632325875
0.03195833333,0.0001460487256
0.03197916667,0.000130851724
0.032,0.0001342000178
0.03202083333,0.0001560042583
0.03204166667,0.0001927886333
0.0320625,0.0002072001953
0.03208333333,0.0002069437469
0.03210416667,0.0001868621621
0.032125,0.000174065688
0.03214583333,0.0001667819161
0.03216666667,0.0001669711201
0.0321875,0.0001612233173
0.03220833333,0.0001455729071
0.03222916667,0.0001255446696
0.03225,0.0001208556132
0.03227083333,0.0001357086876
0.03229166667,0.0001609888714
0.0323125,0.0001851450652
0.03233333333,0.0001876031019
0.03235416667,0.0001820429752
0.032375,0.0001658945403
0.03239583333,0.0001638614049
0.03241666667,0.0001718662097
0.0324375,0.0001832547714
0.03245833333,0.0001902433578
0.03247916667,0.0001942729868
0.0325,0.0001990122546
0.03252083333,0.0002141765872
0.03254166667,0.00022807403
0.0325625,0.0002461860131
0.03258333333,0.0002442488621
0.03260416667,0.0002391302842
0.032625,0.0002169406653
0.03264583333,0.0001952099265
0.03266666667,0.000178625618
0.0326875,0.00017848477
0.03270833333,0.0001824391802
0.03272916667,0.0001966427662
0.03275,0.0002144271275
0.03277083333,0.0002266068623
0.03279166667,0.0002287146344
0.0328125,0.0002250876569
0.03283333333,0.0002078714024
0.03285416667,0.0002057445672
0.032875,0.0002143912425
0.03289583333,0.0002376822522
0.03291666667,0.0002732444555
0.0329375,0.0002842116519
0.03295833333,0.000284343143
0.03297916667,0.0002665957436
0.033,0.0002450663596
0.03302083333,0.0002360869257
0.03304166667,0.0002416756033
0.0330625,0.0002346817491
0.03308333333,0.0002228855301
0.03310416667,0.0002128371125
0.033125,0.0002140848082
0.03314583333,0.0002287529933
0.03316666667,0.0002572390949
0.0331875,0.0002704092185
0.03320833333,0.0002764586243
0.03322916667,0.0002614339464
0.03325,0.0002564405731
0.03327083333,0.0002555328538
0.03329166667,0.0002789241262
0.0333125,0.0002933585783
0.03333333333,0.000306220958
0.03335416667,0.0002969172201
0.033375,0.0002815360203
0.03339583333,0.0002704968792
0.03341666667,0.0002729521948
0.0334375,0.0002764140372
0.03345833333,0.0002837015782
0.03347916667,0.0002765682584
0.0335,0.0002748039842
0.03352083333,0.000272416888
0.03354166667,0.0002780894865
0.0335625,0.000285124348
0.03358333333,0.0002854956256
0.03360416667,0.0002725224767
0.033625,0.0002543408191
0.03364583333,0.0002417415963
0.03366666667,0.0002484375727
0.0336875,0.000261918467
0.03370833333,0.000275053957
0.03372916667,0.0002886002476
0.03375,0.0002855989151
0.03377083333,0.0002800634829
0.03379166667,0.0002660319733
0.0338125,0.000263318012
0.03383333333,0.0002710749686
0.03385416667,0.0002793417079
0.033875,0.0002721799538
0.03389583333,0.0002677625744
0.03391666667,0.0002519653353
0.0339375,0.0002528670011
0.03395833333,0.0002429144515
0.03397916667,0.0002447174629
0.034,0.0002361456864
0.03402083333,0.0002230957471
0.03404166667,0.0002015519131
0.0340625,0.0001981478272
0.03408333333,0.0001919100032
0.03410416667,0.0002186082129
0.034125,0.0002397515782
0.03414583333,0.0002707942622
0.03416666667,0.0002830511658
0.0341875,0.0002845918934
0.03420833333,0.0002753404551
0.03422916667,0.0002543146547
0.03425,0.0002426148421
0.03427083333,0.0002295919112
0.03429166667,0.0002232317493
0.0343125,0.0002113747032
0.03433333333,0.000197760819
0.03435416667,0.0001843631471
0.034375,0.0001832674607
0.03439583333,0.0001934839675
0.03441666667,0.0002112639631
0.0344375,0.0002202328469
0.03445833333,0.0002244366915
0.03447916667,0.0002113328374
0.0345,0.0002107367036
0.03452083333,0.0002084900334
0.03454166667,0.0002169074578
0.0345625,0.000219561276
0.03458333333,0.0002333243174
0.03460416667,0.0002319361665
0.034625,0.0002417317883
0.03464583333,0.0002478859387
0.03466666667,0.000251576741
0.0346875,0.0002291078563
0.03470833333,0.0002051473421
0.03472916667,0.000176533038
0.03475,0.0001688623452
0.03477083333,0.0001719747233
0.03479166667,0.00020259546
0.0348125,0.0002303213696
0.03483333333,0.0002487242164
0.03485416667,0.0002449496533
0.034875,0.0002228264057
0.03489583333,0.0002000797831
0.03491666667,0.0001953053579
0.0349375,0.0001892119617
0.03495833333,0.0002081481507
0.03497916667,0.0002144423925
0.035,0.0002212193649
0.03502083333,0.0002523005242
0.03504166667,0.0002668028465
0.0350625,0.0002797769848
0.03508333333,0.0002734383452
0.03510416667,0.000256022031
0.035125,0.0002352115844
0.03514583333,0.0002337579062
0.03516666667,0.0002403537073
0.0351875,0.0002507594763
0.03520833333,0.0002538421832
0.03522916667,0.0002504405566
0.03525,0.0002335676982
0.03527083333,0.0002188054204
0.03529166667,0.0002017316438
0.0353125,0.0002050771145
0.03533333333,0.0001974780025
0.03535416667,0.0001966218115
0.035375,0.0001910850842
0.03539583333,0.0002026260918
0.03541666667,0.000210821323
0.0354375,0.0002373359457
0.03545833333,0.000253707025
0.03547916667,0.0002615544072
0.0355,0.0002550033969
0.03552083333,0.0002475876827
0.03554166667,0.0002458805684
0.0355625,0.0002525052696
0.03558333333,0.0002632455435
0.03560416667,0.0002796151675
0.035625,0.000273210404
0.03564583333,0.0002880792599
0.03566666667,0.0002880067332
0.0356875,0.0002969763591
0.03570833333,0.0002893825877
0.03572916667,0.0002591660304
0.03575,0.0002272070415
0.03577083333,0.0002023358684
0.03579166667,0.0001842604834
0.0358125,0.000200439521
0.03583333333,0.0002132336958
0.03585416667,0.0002331227006
0.035875,0.000229509882
0.03589583333,0.0002108659828
0.03591666667,0.0002022389817
0.0359375,0.0001948120625
0.03595833333,0.000196261768
0.03597916667,0.000185949626
0.036,0.0002040798136
0.03602083333,0.000205704433
0.03604166667,0.0002036991355
0.0360625,0.0002133134694
0.03608333333,0.000220636226
0.03610416667,0.0002131572837
0.036125,0.0002162863675
0.03614583333,0.000194848195
0.03616666667,0.000179828261
0.0361875,0.0001642646821
0.03620833333,0.0001542330283
0.03622916667,0.0001405442017
0.03625,0.0001480680658
0.03627083333,0.0001453411824
0.03629166667,0.0001587822335
0.0363125,0.0001671606442
0.03633333333,0.0001768025249
0.03635416667,0.000162860626
0.036375,0.0001480583742
0.03639583333,0.0001355830318
0.03641666667,0.0001263222221
0.0364375,0.0001137834188
0.03645833333,0.0001119485823
0.03647916667,0.0001177959639
0.0365,0.0001212622446
0.03652083333,0.0001173741693
0.03654166667,9.952252003e-05
0.0365625,9.123607015e-05
0.03658333333,7.334503607e-05
0.03660416667,7.366624777e-05
0.036625,8.626584167e-05
0.03664583333,0.0001041028227
0.03666666667,0.0001134726626
0.0366875,0.0001104484618
0.03670833333,7.237146201e-05
0.03672916667,4.850386904e-05
0.03675,-3.414043022e-06
0.03677083333,-1.439085827e-05
0.03679166667,-2.554890307e-05
0.0368125,-1.768894435e-05
0.03683333333,1.361308114e-05
0.03685416667,-2.141693403e-05
0.036875,-4.185441867e-05
0.03689583333,-3.686903074e-05
0.03691666667,-6.623960508e-05
0.0369375,-3.883384488e-05
0.03695833333,-4.555509804e-05
0.03697916667,-3.331899643e-05
0.037,-5.0469087e-05
0.03702083333,-1.351664287e-05
0.03704166667,1.684778908e-05
0.0370625,4.069649731e-05
0.03708333333,2.063527245e-05
0.03710416667,-9.42332008e-06
0.037125,-6.548129022e-05
0.03714583333,-9.128911188e-05
0.03716666667,-0.0001160230895
0.0371875,-8.574940148e-05
0.03720833333,-7.743726746e-05
0.03722916667,-4.712325608e-05
0.03725,-6.201340875e-05
0.03727083333,-7.246228051e-05
0.03729166667,-0.0001001282799
0.0373125,-0.0001137118525
0.03733333333,-0.0001357734
0.03735416667,-0.0001395501313
0.037375,-0.0001348891819
0.03739583333,-0.0001164717251
0.03741666667,-8.056029765e-05
0.0374375,-5.081257768e-05
0.03745833333,-3.323205965e-05
0.03747916667,-6.16374964e-05
0.0375,-0.0001165865106
0.03752083333,-0.000166597747
0.03754166667,-0.0001841170888
0.0375625,-0.0001538387005
0.03758333333,-8.6059561e-05
0.03760416667,-4.550672384e-05
0.037625,-2.031918848e-05
0.03764583333,-6.874237442e-05
0.03766666667,-0.0001147500807
0.0376875,-0.0001754149562
0.03770833333,-0.0002010631142
0.03772916667,-0.0002192818793
0.03775,-0.0001878470939
0.03777083333,-0.0001772904361
0.03779166667,-0.0001532714232
0.0378125,-0.0001574842609
0.03783333333,-0.0001551587193
0.03785416667,-0.0001803408959
0.037875,-0.0001889363921
0.03789583333,-0.0002165934566
0.03791666667,-0.0002096323442
0.0379375,-0.0002005556016
0.03795833333,-0.0001548795699
0.03797916667,-0.0001080528527
0.038,-7.765420742e-05
0.03802083333,-5.350048013e-05
0.03804166667,-6.997019955e-05
0.0380625,-0.0001168631425
0.03808333333,-0.0001675373933
0.03810416667,-0.0001778757869
0.038125,-0.0001875465241
0.03814583333,-0.0001419433247
0.03816666667,-0.000106212814
0.0381875,-7.011684647e-05
0.03820833333,-5.034152855e-05
0.03822916667,-5.930980842e-05
0.03825,-8.486479055e-05
0.03827083333,-9.691830928e-05
0.03829166667,-0.0001144521302
0.0383125,-0.0001009569678
0.03833333333,-9.693194443e-05
0.03835416667,-5.682973642e-05
0.038375,-5.042012708e-05
0.03839583333,-3.613139415e-05
0.03841666667,-6.194533489e-05
0.0384375,-8.253194392e-05
0.03845833333,-0.0001368376688
0.03847916667,-0.0001770163071
0.0385,-0.000217987661
0.03852083333,-0.0002336456382
0.03854166667,-0.0002456260263
0.0385625,-0.0002129396744
0.03858333333,-0.0002044094435
0.03860416667,-0.0001992494072
0.038625,-0.0002458548988
0.03864583333,-0.0003008407948
0.03866666667,-0.0003602062061
0.0386875,-0.0004008766264
0.03870833333,-0.0004043073568
0.03872916667,-0.000407350366
0.03875,-0.0003998968459
0.03877083333,-0.0004172564368
0.03879166667,-0.0004496446636
0.0388125,-0.0004936531186
0.03883333333,-0.0005405990523
0.03885416667,-0.0005686833174
0.038875,-0.0005978747504
0.03889583333,-0.0006379818078
0.03891666667,-0.0006724717095
0.0389375,-0.0006975708529
0.03895833333,-0.0007179101231
0.03897916667,-0.0007393318228
0.039,-0.0007547480054
0.03902083333,-0.0007904842496
0.03904166667,-0.0008393888129
0.0390625,-0.000873290759
0.03908333333,-0.000894881261
0.03910416667,-0.000928763533
0.039125,-0.0009459102293
0.03914583333,-0.0009757545777
0.03916666667,-0.0009964630008
0.0391875,-0.001024875557
0.03920833333,-0.001042267191
0.03922916667,-0.001069822698
0.03925,-0.001092345803
0.03927083333,-0.001134580816
0.03929166667,-0.001176935155
0.0393125,-0.001220116974
0.03933333333,-0.001250264584
0.03935416667,-0.001258597942
0.039375,-0.001259556739
0.03939583333,-0.00125540304
0.03941666667,-0.001262455946
0.0394375,-0.001271733898
0.03945833333,-0.001282778336
0.03947916667,-0.001280350261
0.0395,-0.001274314127
0.03952083333,-0.001262446516
0.03954166667,-0.001243342296
0.0395625,-0.001224281383
0.03958333333,-0.001215117169
0.03960416667,-0.0012105559
0.039625,-0.001204230823
0.03964583333,-0.001195560326
0.03966666667,-0.001197523903
0.0396875,-0.001191123971
0.03970833333,-0.001209439593
0.03972916667,-0.001202005078
0.03975,-0.001216836041
0.03977083333,-0.001225675107
0.03979166667,-0.001252507675
0.0398125,-0.001267055748
0.03983333333,-0.001292625675
0.03985416667,-0.00129465072
0.039875,-0.00130188989
0.03989583333,-0.001296674833
0.03991666667,-0.00129760406
0.0399375,-0.001305679558
0.03995833333,-0.001323791221
0.03997916667,-0.001338918111
0.04,-0.001375117688
0.04002083333,-0.001363749034
0.04004166667,-0.00134535972
0.0400625,-0.001312491833
0.04008333333,-0.001298937714
0.04010416667,-0.001311757253
0.040125,-0.001342673087
0.04014583333,-0.001354960143
0.04016666667,-0.001376233995
0.0401875,-0.001374038053
0.04020833333,-0.001404678449
0.04022916667,-0.001411299105
0.04025,-0.001427610754
0.04027083333,-0.001432246878
0.04029166667,-0.001427754411
0.0403125,-0.001433526631
0.04033333333,-0.001425313414
0.04035416667,-0.001430647564
0.040375,-0.001424221555
0.04039583333,-0.00142088579
0.04041666667,-0.001406561933
0.0404375,-0.001395704458
0.04045833333,-0.001369595178
0.04047916667,-0.00135196012
0.0405,-0.00132444792
0.04052083333,-0.001320281415
0.04054166667,-0.001308280625
0.0405625,-0.001306131599
0.04058333333,-0.001299202093
0.04060416667,-0.001317441347
0.040625,-0.001338670612
0.04064583333,-0.001371118124
0.04066666667,-0.001376371481
0.0406875,-0.001391180209
0.04070833333,-0.001381159993
0.04072916667,-0.0013849549
0.04075,-0.001391499536
0.04077083333,-0.001385879586
0.04079166667,-0.001398089109
0.0408125,-0.001400515554
0.04083333333,-0.001389616518
0.04085416667,-0.00138827262
0.040875,-0.001382276649
0.04089583333,-0.001377863693
0.04091666667,-0.001376192435
0.0409375,-0.001364662661
0.04095833333,-0.001336082118
0.04097916667,-0.001319088973
0.041,-0.001326329075
0.04102083333,-0.001350475126
0.04104166667,-0.001358766691
0.0410625,-0.001357125468
0.04108333333,-0.001359130954
0.04110416667,-0.001339262933
0.041125,-0.001335422043
0.04114583333,-0.001319160219
0.04116666667,-0.001312296488
0.0411875,-0.001316736802
0.04120833333,-0.001325733494
0.04122916667,-0.001343819895
0.04125,-0.001378040179
0.04127083333,-0.00140459137
0.04129166667,-0.001435713843
0.0413125,-0.001446928945
0.04133333333,-0.001475687255
0.04135416667,-0.001494989498
0.041375,-0.001547141583
0.04139583333,-0.001589670312
0.04141666667,-0.001651060651
0.0414375,-0.001701294212
0.04145833333,-0.001739494735
0.04147916667,-0.001763685374
0.0415,-0.00177878805
0.04152083333,-0.001802752842
0.04154166667,-0.001824943698
0.0415625,-0.001849839347
0.04158333333,-0.001876377966
0.04160416667,-0.001905000536
0.041625,-0.00191164948
0.04164583333,-0.001914155437
0.04166666667,-0.001916136476
0.0416875,-0.001923718723
0.04170833333,-0.001945413067
0.04172916667,-0.001977854641
0.04175,-0.001989262179
0.04177083333,-0.002011909848
0.04179166667,-0.002029435011
0.0418125,-0.0020313235
0.04183333333,-0.002014677506
0.04185416667,-0.002003601054
0.041875,-0.001991133904
0.04189583333,-0.001997611951
0.04191666667,-0.002010329859
0.0419375,-0.002036368009
0.04195833333,-0.002017790684
0.04197916667,-0.001969896955
0.042,-0.001905977959
0.04202083333,-0.001856340794
0.04204166667,-0.001834220719
0.0420625,-0.001832212438
0.04208333333,-0.00184244616
0.04210416667,-0.001868864987
0.042125,-0.001865254366
0.04214583333,-0.001859660377
0.04216666667,-0.001834656345
0.0421875,-0.001820919104
0.04220833333,-0.001830423251
0.04222916667,-0.001826307271
0.04225,-0.001828610199
0.04227083333,-0.001836442039
0.04229166667,-0.001872693654
0.0423125,-0.001919050701
0.04233333333,-0.001964840572
0.04235416667,-0.001974143554
0.042375,-0.001949945698
0.04239583333,-0.001899819705
0.04241666667,-0.001865652041
0.0424375,-0.001851452049
0.04245833333,-0.001880052034
0.04247916667,-0.001920618815
0.0425,-0.001951054437
0.04252083333,-0.001938846661
0.04254166667,-0.001921303105
0.0425625,-0.001894475194
0.04258333333,-0.001888936502
0.04260416667,-0.001895727823
0.042625,-0.00193634734
0.04264583333,-0.001974321902
0.04266666667,-0.002043288667
0.0426875,-0.002083897591
0.04270833333,-0.002145121573
0.04272916667,-0.00215690257
0.04275,-0.002172523644
0.04277083333,-0.002141066128
0.04279166667,-0.002131280955
0.0428125,-0.002107563661
0.04283333333,-0.002105945721
0.04285416667,-0.002119388431
0.042875,-0.002142430516
0.04289583333,-0.002182782628
0.04291666667,-0.002193985507
0.0429375,-0.002225653967
0.04295833333,-0.002230622573
0.04297916667,-0.002221921925
0.043,-0.002243388677
0.04302083333,-0.002248649485
0.04304166667,-0.002284605289
0.0430625,-0.002328008879
0.04308333333,-0.002384416293
0.04310416667,-0.002415597904
0.043125,-0.00243552844
0.04314583333,-0.00243661413
0.04316666667,-0.002395607531
0.0431875,-0.002368048299
0.04320833333,-0.002339189174
0.04322916667,-0.002339209663
0.04325,-0.002321217209
0.04327083333,-0.002317368984
0.04329166667,-0.002302067587
0.0433125,-0.002289163182
0.04333333333,-0.002293288242
0.04335416667,-0.002285340801
0.043375,-0.002308897441
0.04339583333,-0.002311960561
0.04341666667,-0.002298787935
0.0434375,-0.002310521202
0.04345833333,-0.002294179983
0.04347916667,-0.002321561798
0.0435,-0.002313507721
0.04352083333,-0.002330700867
0.04354166667,-0.002334177261
0.0435625,-0.002314614365
0.04358333333,-0.002303394256
0.04360416667,-0.002280942863
0.043625,-0.002270204481
0.04364583333,-0.002260329435
0.04366666667,-0.002261803951
0.0436875,-0.002264833776
0.04370833333,-0.002266650787
0.04372916667,-0.00227466668
0.04375,-0.002286475385
0.04377083333,-0.002312956145
0.04379166667,-0.002366065746
0.0438125,-0.002407311928
0.04383333333,-0.002430482302
0.04385416667,-0.002414018614
0.043875,-0.00240620831
0.04389583333,-0.002380382735
0.04391666667,-0.00239601708
0.0439375,-0.002400109079
0.04395833333,-0.00243077171
0.04397916667,-0.002433542395
0.044,-0.00244174595
0.04402083333,-0.00241409149
0.04404166667,-0.002410679357
0.0440625,-0.002376303775
0.04408333333,-0.002351982985
0.04410416667,-0.002305600559
0.044125,-0.002307183808
0.04414583333,-0.00231070444
0.04416666667,-0.002305405913
0.0441875,-0.002281001769
0.04420833333,-0.002237020293
0.04422916667,-0.002206868958
0.04425,-0.002186423633
0.04427083333,-0.002176402835
0.04429166667,-0.002173624933
0.0443125,-0.002173230052
0.04433333333,-0.002174405381
0.04435416667,-0.002160151722
0.044375,-0.00212310371
0.04439583333,-0.002061033854
0.04441666667,-0.002014796715
0.0444375,-0.001978515182
0.04445833333,-0.001950468868
0.04447916667,-0.001951192273
0.0445,-0.001909373095
0.04452083333,-0.001892996836
0.04454166667,-0.001853488851
0.0445625,-0.001848303946
0.04458333333,-0.001818511868
0.04460416667,-0.001817826298
0.044625,-0.001793015515
0.04464583333,-0.001796336612
0.04466666667,-0.001791303395
0.0446875,-0.001799604855
0.04470833333,-0.001799307647
0.04472916667,-0.001805862295
0.04475,-0.001778869773
0.04477083333,-0.001759442734
0.04479166667,-0.001701625413
0.0448125,-0.001665091491
0.04483333333,-0.001626540907
0.04485416667,-0.001603984972
0.044875,-0.001561612473
0.04489583333,-0.001496179728
0.04491666667,-0.001431223354
0.0449375,-0.001360273338
0.04495833333,-0.001314791967
0.04497916667,-0.001258644275
0.045,-0.001206272747
0.04502083333,-0.00112123508
0.04504166667,-0.00105301966
0.0450625,-0.0009550320683
0.04508333333,-0.0008901349502
0.04510416667,-0.0008321305504
0.045125,-0.0008011946338
0.04514583333,-0.0007856977172
0.04516666667,-0.0007438687608
0.0451875,-0.0007318347925
0.04520833333,-0.0006800127449
0.04522916667,-0.000646908069
0.04525,-0.0006256400957
0.04527083333,-0.0005799089558
0.04529166667,-0.0005612654495
0.0453125,-0.0005286636297
0.04533333333,-0.0005378260394
0.04535416667,-0.0005157719715
0.045375,-0.0005166286137
0.04539583333,-0.0005159573047
0.04541666667,-0.0005356933107
0.0454375,-0.0005650856765
0.04545833333,-0.0006183161167
0.04547916667,-0.0006572674029
0.0455,-0.0006947931834
0.04552083333,-0.0007252424257
0.04554166667,-0.0007765794289
0.0455625,-0.0008216357091
0.04558333333,-0.0008919750107
0.04560416667,-0.0009500198066
0.045625,-0.0009893451352
0.04564583333,-0.001009361818
0.04566666667,-0.0009924112819
0.0456875,-0.0009752580663
0.04570833333,-0.0009485007031
0.04572916667,-0.0009286745335
0.04575,-0.0008926448645
0.04577083333,-0.0008668850642
0.04579166667,-0.0008339214255
0.0458125,-0.0008338759653
0.04583333333,-0.000828641234
0.04585416667,-0.0008369113784
0.045875,-0.000818507222
0.04589583333,-0.000782237621
0.04591666667,-0.0007306078332
0.0459375,-0.0006793899229
0.04595833333,-0.0006312837359
0.04597916667,-0.0006293038605
0.046,-0.0006207200931
0.04602083333,-0.0006076349528
0.04604166667,-0.0005724907387
0.0460625,-0.0005258753663
0.04608333333,-0.0004904615926
0.04610416667,-0.0004541364615
0.046125,-0.0004316764534
0.04614583333,-0.0003879045253
0.04616666667,-0.0003621616343
0.0461875,-0.0003528069647
0.04620833333,-0.0003888185602
0.04622916667,-0.0003854043898
0.04625,-0.0004035372403
0.04627083333,-0.0004314151593
0.04629166667,-0.0004128498258
0.0463125,-0.0003731213801
0.04633333333,-0.0003048851504
0.04635416667,-0.0002308246476
0.046375,-0.0001463180961
0.04639583333,-7.657153765e-05
0.04641666667,-3.193103475e-05
0.0464375,2.102230792e-05
0.04645833333,9.290024173e-05
0.04647916667,0.0001684258605
0.0465,0.0002311182034
0.04652083333,0.0002913524513
0.04654166667,0.0003489193623
0.0465625,0.0003964036878
0.04658333333,0.0004151583125
0.04660416667,0.0004542505485
0.046625,0.000481577008
0.04664583333,0.0005223811604
0.04666666667,0.000549700344
0.0466875,0.0005805141991
0.04670833333,0.0006117837038
0.04672916667,0.0006407842156
0.04675,0.000672212278
0.04677083333,0.0006919399602
0.04679166667,0.0007105063414
0.0468125,0.0007412653067
0.04683333333,0.0007661244017
0.04685416667,0.0007996289642
0.046875,0.0008583182353
0.04689583333,0.0009125240613
0.04691666667,0.0009605616215
0.0469375,0.0009752336191
0.04695833333,0.00100093009
0.04697916667,0.001028349274
0.047,0.001097078668
0.04702083333,0.001143638743
0.04704166667,0.001219239901
0.0470625,0.001251579495
0.04708333333,0.001292964676
0.04710416667,0.001309658983
0.047125,0.001373202424
0.04714583333,0.001416384242
0.04716666667,0.001366239507
0.0471875,0.001323852688
0.04720833333,0.001309004845
0.04722916667,0.001251850626
0.04725,0.001302449731
0.04727083333,0.001323683886
0.04729166667,0.001419205335
0.0473125,0.001415546285
0.04733333333,0.001397419837
0.04735416667,0.001366220065
0.047375,0.001334757195
0.04739583333,0.001357967732
0.04741666667,0.001400183071
0.0474375,0.001463612425
0.04745833333,0.00151882018
0.04747916667,0.001537910546
0.0475,0.001520736143
0.04752083333,0.001489970018
0.04754166667,0.00147215859
0.0475625,0.001465785084
0.04758333333,0.00145115878
0.04760416667,0.001452241209
0.047625,0.001411260339
0.04764583333,0.001394537394
0.04766666667,0.001360093709
0.0476875,0.001344048535
0.04770833333,0.001328310696
0.04772916667,0.001297892188
0.04775,0.001265261322
0.04777083333,0.001245221705
0.04779166667,0.001217479585
0.0478125,0.001218974823
0.04783333333,0.001188087044
0.04785416667,0.00116917328
0.047875,0.001104765106
0.04789583333,0.001077341032
0.04791666667,0.001020732219
0.0479375,0.001016475377
0.04795833333,0.0009718320216
0.04797916667,0.0009557724698
0.048,0.0009492717218
0.04802083333,0.0009155066218
0.04804166667,0.0008961282438
0.0480625,0.0008878694498
0.04808333333,0.0008811525186
0.04810416667,0.0008856947534
0.048125,0.000864417816
0.04814583333,0.0008553002262
0.04816666667,0.000819923298
0.0481875,0.000780751463
0.04820833333,0.0007310631918
0.04822916667,0.0006957509322
0.04825,0.0006428007036
0.04827083333,0.0006019113353
0.04829166667,0.0005722272908
0.0483125,0.0005012973561
0.04833333333,0.0004907783587
0.04835416667,0.0004394348362
0.048375,0.0004675480013
0.04839583333,0.0004435987212
0.04841666667,0.000506513752
0.0484375,0.0005224928609
0.04845833333,0.0005177755374
0.04847916667,0.0005623293691
0.0485,0.0006009028293
0.04852083333,0.0006339906249
0.04854166667,0.000673447852
0.0485625,0.0007019024342
0.04858333333,0.0007757025305
0.04860416667,0.000873095938
0.048625,0.001003585407
0.04864583333,0.001111301593
0.04866666667,0.00120489113
0.0486875,0.001295427443
0.04870833333,0.00137057784
0.04872916667,0.001463456312
0.04875,0.001614341978
0.04877083333,0.001749501913
0.04879166667,0.001861535478
0.0488125,0.001967721619
0.04883333333,0.002061535139
0.04885416667,0.002169328276
0.048875,0.002301991452
0.04889583333,0.002447922248
0.04891666667,0.002611139556
0.0489375,0.002761255251
0.04895833333,0.002893846482
0.04897916667,0.003004051745
0.049,0.00308311102
0.04902083333,0.003194237594
0.04904166667,0.003308088984
0.0490625,0.003440823639
0.04908333333,0.003537357319
0.04910416667,0.003614520188
0.049125,0.003673582803
0.04914583333,0.003709639423
0.04916666667,0.003705953481
0.0491875,0.003688249737
0.04920833333,0.003647271311
0.04922916667,0.003636732465
0.04925,0.003638637019
0.04927083333,0.003642469645
0.04929166667,0.003645967226
0.0493125,0.003646715079
0.04933333333,0.003632474691
0.04935416667,0.003640069626
0.049375,0.003653733525
0.04939583333,0.003689431353
0.04941666667,0.003675077111
0.0494375,0.003647280857
0.04945833333,0.00362419826
0.04947916667,0.003622735152
0.0495,0.003660379909
0.04952083333,0.003730320139
0.04954166667,0.003826186992
0.0495625,0.003872067668
0.04958333333,0.003858180251
0.04960416667,0.003843559884
0.049625,0.003837510478
0.04964583333,0.003891278058
0.04966666667,0.003934660461
0.0496875,0.003956274129
0.04970833333,0.00397354411
0.04972916667,0.003960891627
0.04975,0.003972256556
0.04977083333,0.003984454088
0.04979166667,0.003990699537
0.0498125,0.003952576779
0.04983333333,0.003899644129
0.04985416667,0.003841493279
0.049875,0.003840322141
0.04989583333,0.00385494763
0.04991666667,0.003905748483
0.0499375,0.0039509614
0.04995833333,0.003966066055
0.04997916667,0.003965525422
0.05,0.003990612924
0.05002083333,0.00398977939
0.05004166667,0.004020608962
0.0500625,0.004037656356
0.05008333333,0.004063218366
0.05010416667,0.004087183625
0.050125,0.004116732161
0.05014583333,0.004171101842
0.05016666667,0.004235277418
0.0501875,0.004311050288
0.05020833333,0.00437347265
0.05022916667,0.004426131956
0.05025,0.004503070842
0.05027083333,0.004572123289
0.05029166667,0.004622512963
0.0503125,0.004679706413
0.05033333333,0.004700397141
0.05035416667,0.004745884798
0.050375,0.004758362193
0.05039583333,0.004820949864
0.05041666667,0.004917704035
0.0504375,0.005013687536
0.05045833333,0.005098210648
0.05047916667,0.005149974488
0.0505,0.005177958868
0.05052083333,0.00522838952
0.05054166667,0.005278486758
0.0505625,0.005361902993
0.05058333333,0.005401891656
0.05060416667,0.005455968436
0.050625,0.005508188624
0.05064583333,0.005564017221
0.05066666667,0.00563250808
0.0506875,0.005715981591
0.05070833333,0.005784720648
0.05072916667,0.005865637679
0.05075,0.005892842542
0.05077083333,0.005904070102
0.05079166667,0.005925418809
0.0508125,0.005947912112
0.05083333333,0.005985036492
0.05085416667,0.006001178641
0.050875,0.006027478725
0.05089583333,0.00607174309
0.05091666667,0.006085453555
0.0509375,0.006115292199
0.05095833333,0.006129861344
0.05097916667,0.006157320924
0.051,0.006199964788
0.05102083333,0.006239006761
0.05104166667,0.006299335044
0.0510625,0.006320445798
0.05108333333,0.006342303008
0.05110416667,0.006354270503
0.051125,0.006355145015
0.05114583333,0.006337984465
0.05116666667,0.006321894005
0.0511875,0.006345058326
0.05120833333,0.006377574988
0.05122916667,0.006369272247
0.05125,0.006383186672
0.05127083333,0.006403676234
0.05129166667,0.006474513095
0.0513125,0.006592348684
0.05133333333,0.006733995862
0.05135416667,0.00686845975
0.051375,0.007010768168
0.05139583333,0.007185054012
0.05141666667,0.007356394082
0.0514375,0.007522669155
0.05145833333,0.007692766842
0.05147916667,0.007796152495
0.0515,0.007930871099
0.05152083333,0.008078252897
0.05154166667,0.008204260841
0.0515625,0.00832351204
0.05158333333,0.008407419547
0.05160416667,0.008474414237
0.051625,0.008519252762
0.05164583333,0.008562781848
0.05166666667,0.008615189232
0.0516875,0.008648644201
0.05170833333,0.008653569035
0.05172916667,0.008595353924
0.05175,0.008505407721
0.05177083333,0.008425252512
0.05179166667,0.00836138241
0.0518125,0.008283692412
0.05183333333,0.008187337779
0.05185416667,0.008095940575
0.051875,0.007970523089
0.05189583333,0.007870424539
0.05191666667,0.007774550933
0.0519375,0.007720022928
0.05195833333,0.007634303533
0.05197916667,0.007545776665
0.052,0.007448441349
0.05202083333,0.007335708477
0.05204166667,0.007279074285
0.0520625,0.007249828428
0.05208333333,0.007226047106
0.05210416667,0.007230163552
0.052125,0.007161922287
0.05214583333,0.007130520884
0.05216666667,0.007124885451
0.0521875,0.007139345165
0.05220833333,0.007160767913
0.05222916667,0.007229656912
0.05225,0.007298278157
0.05227083333,0.007368426304
0.05229166667,0.00745442789
0.0523125,0.007522916887
0.05233333333,0.007605981547
0.05235416667,0.007674898952
0.052375,0.007724654861
0.05239583333,0.007787161972
0.05241666667,0.007809433155
0.0524375,0.007839559577
0.05245833333,0.007891205139
0.05247916667,0.007906674407
0.0525,0.007993908599
0.05252083333,0.008062570356
0.05254166667,0.008139044978
0.0525625,0.008217767812
0.05258333333,0.008278370835
0.05260416667,0.008333866484
0.052625,0.008379017003
0.05264583333,0.008416566998
0.05266666667,0.008463222533
0.0526875,0.008468188345
0.05270833333,0.008506771177
0.05272916667,0.008544324897
0.05275,0.008596729487
0.05277083333,0.008647680283
0.05279166667,0.00872174371
0.0528125,0.008783496916
0.05283333333,0.008860207163
0.05285416667,0.008908649907
0.052875,0.008950580843
0.05289583333,0.00895555038
0.05291666667,0.008958638646
0.0529375,0.008978902362
0.05295833333,0.009027349763
0.05297916667,0.00909361057
0.053,0.009166937321
0.05302083333,0.009196490981
0.05304166667,0.009231196716
0.0530625,0.009233126417
0.05308333333,0.009224815294
0.05310416667,0.009242602624
0.053125,0.009233145043
0.05314583333,0.009267758578
0.05316666667,0.00926652737
0.0531875,0.00928349141
0.05320833333,0.009317690507
0.05322916667,0.00936023239
0.05325,0.009424695745
0.05327083333,0.009472045116
0.05329166667,0.009479747154
0.0533125,0.009506848641
0.05333333333,0.009483641014
0.05335416667,0.009487325326
0.053375,0.009509491734
0.05339583333,0.009507380426
0.05341666667,0.009499009699
0.0534375,0.009487664327
0.05345833333,0.009440312162
0.05347916667,0.009477064013
0.0535,0.009489248507
0.05352083333,0.00952023454
0.05354166667,0.009539144114
0.0535625,0.009564323351
0.05358333333,0.009582212195
0.05360416667,0.009562610649
0.053625,0.009530264884
0.05364583333,0.009507892653
0.05366666667,0.009464296512
0.0536875,0.009444071911
0.05370833333,0.009395187721
0.05372916667,0.009325898252
0.05375,0.009274197742
0.05377083333,0.009247771464
0.05379166667,0.009229303338
0.0538125,0.009233595803
0.05383333333,0.009184269235
0.05385416667,0.009120428935
0.053875,0.009065585211
0.05389583333,0.008983103558
0.05391666667,0.008947842754
0.0539375,0.008899854496
0.05395833333,0.008879803121
0.05397916667,0.008853167295
0.054,0.008826723322
0.05402083333,0.008798678406
0.05404166667,0.008806665428
0.0540625,0.008802334778
0.05408333333,0.008786245249
0.05410416667,0.008736490272
0.054125,0.008698580787
0.05414583333,0.008665180765
0.05416666667,0.008623259142
0.0541875,0.008570481092
0.05420833333,0.008524227887
0.05422916667,0.008429306559
0.05425,0.008359992877
0.05427083333,0.0082689384
0.05429166667,0.008179421537
0.0543125,0.008083938621
0.05433333333,0.007995378226
0.05435416667,0.007875693962
0.054375,0.007801149972
0.05439583333,0.007733901497
0.05441666667,0.007656350732
0.0544375,0.007585004903
0.05445833333,0.007478241343
0.05447916667,0.007401894778
0.0545,0.007302233484
0.05452083333,0.007194450591
0.05454166667,0.007157477085
0.0545625,0.00710752001
0.05458333333,0.007065792568
0.05460416667,0.007084502373
0.054625,0.007067417726
0.05464583333,0.007087075152
0.05466666667,0.007063008845
0.0546875,0.007052658126
0.05470833333,0.007062300108
0.05472916667,0.007058589254
0.05475,0.007073783781
0.05477083333,0.007092229556
0.05479166667,0.007086997386
0.0548125,0.007077069953
0.05483333333,0.006993984338
0.05485416667,0.006930390839
0.054875,0.006828134879
0.05489583333,0.006754775066
0.05491666667,0.006643623579
0.0549375,0.006545075681
0.05495833333,0.006425292231
0.05497916667,0.006265411619
0.055,0.006099437829
0.05502083333,0.005952462554
0.05504166667,0.005860333797
0.0550625,0.005784326699
0.05508333333,0.005651344545
0.05510416667,0.005525287241
0.055125,0.00543401204
0.05514583333,0.005396586377
0.05516666667,0.00538671203
0.0551875,0.005406118929
0.05520833333,0.005389245693
0.05522916667,0.005308561027
0.05525,0.005250333808
0.05527083333,0.005144564901
0.05529166667,0.005059051327
0.0553125,0.005005808081
0.05533333333,0.004992704373
0.05535416667,0.005012603477
0.055375,0.005014038645
0.05539583333,0.005023027305
0.05541666667,0.005006631371
0.0554375,0.005001358688
0.05545833333,0.005021644756
0.05547916667,0.005031643901
0.0555,0.005046979524
0.05552083333,0.005049821455
0.05554166667,0.005088517442
0.0555625,0.005122999195
0.05558333333,0.005188762676
0.05560416667,0.005156426225
0.055625,0.005126476288
0.05564583333,0.005068068858
0.05566666667,0.005014998373
0.0556875,0.004989945795
0.05570833333,0.004955349956
0.05572916667,0.004915214609
0.05575,0.004874601495
0.05577083333,0.004822988994
0.05579166667,0.004799660295
0.0558125,0.004768833052
0.05583333333,0.004767424427
0.05585416667,0.004736412317
0.055875,0.004676069599
0.05589583333,0.004588782322
0.05591666667,0.004512578249
0.0559375,0.004457028117
0.05595833333,0.004450129345
0.05597916667,0.004457966425
0.056,0.004381652456
0.05602083333,0.004280661698
0.05604166667,0.004117915872
0.0560625,0.003940047696
0.05608333333,0.003797160694
0.05610416667,0.00363837718
0.056125,0.003543169703
0.05614583333,0.003453478916
0.05616666667,0.003323851153
0.0561875,0.003260986647
0.05620833333,0.003125219606
0.05622916667,0.003090317827
0.05625,0.003041876946
0.05627083333,0.002891714685
0.05629166667,0.00283023715
0.0563125,0.00268836203
0.05633333333,0.002453435212
0.05635416667,0.00237458176
0.056375,0.002207934856
0.05639583333,0.002099814825
0.05641666667,0.002015620703
0.0564375,0.001890797168
0.05645833333,0.001775374636
0.05647916667,0.001673987834
0.0565,0.001664790325
0.05652083333,0.001689158729
0.05654166667,0.001685811672
0.0565625,0.001677210443
0.05658333333,0.001563097234
0.05660416667,0.001423432492
0.056625,0.001262219856
0.05664583333,0.001105009927
0.05666666667,0.0009865639731
0.0566875,0.0008484504651
0.05670833333,0.0007245104061
0.05672916667,0.0005806165282
0.05675,0.0004283653398
0.05677083333,0.0002631187381
0.05679166667,0.0001372624247
0.0568125,4.394946154e-05
0.05683333333,-4.396765144e-05
0.05685416667,-0.0001781220781
0.056875,-0.0003112250124
0.05689583333,-0.0004886651295
0.05691666667,-0.0006121206679
0.0569375,-0.000682643149
0.05695833333,-0.0006868708879
0.05697916667,-0.0007300978759
0.057,-0.0007431722479
0.05702083333,-0.0008412089664
0.05704166667,-0.0008676199359
0.0570625,-0.0009074641275
0.05708333333,-0.0009298991645
0.05710416667,-0.0009220367647
0.057125,-0.0009462892776
0.05714583333,-0.001013491303
0.05716666667,-0.001055846573
0.0571875,-0.0009701657109
0.05720833333,-0.0007651290507
0.05722916667,-0.0005217834841
0.05725,-0.0003096085857
0.05727083333,-0.0001730179647
0.05729166667,2.516090171e-05
0.0573125,7.372927212e-05
0.05733333333,0.0001973555627
0.05735416667,0.0002770104329
0.057375,0.0002289311087
0.05739583333,0.0002665215288
0.05741666667,0.0002504890144
0.0574375,0.0001819663448
0.05745833333,0.0001679363195
0.05747916667,0.0001451028947
0.0575,0.0001366010692
0.05752083333,0.0001540906087
0.05754166667,0.0001331550593
0.0575625,0.000128024054
0.05758333333,6.943795597e-05
0.05760416667,4.907005496e-05
0.057625,-1.624772267e-06
0.05764583333,-8.125721797e-05
0.05766666667,-0.0001272369118
0.0576875,-0.0001590515021
0.05770833333,-0.0001767416397
0.05772916667,-0.0001602551201
0.05775,-0.000184943623
0.05777083333,-0.0002695025469
0.05779166667,-0.0003672524763
0.0578125,-0.0004383279884
0.05783333333,-0.0004934940371
0.05785416667,-0.0004668022448
0.057875,-0.0004399940954
0.05789583333,-0.000375807489
0.05791666667,-0.0003537119483
0.0579375,-0.0003370153718
0.05795833333,-0.0003114287101
0.05797916667,-0.0002842814429
0.058,-0.0003074030101
0.05802083333,-0.0003267041466
0.05804166667,-0.0003679976217
0.0580625,-0.0003875301336
0.05808333333,-0.0004227972531
0.05810416667,-0.0004541572707
0.058125,-0.0004690777278
0.05814583333,-0.0004805895151
0.05816666667,-0.000488176709
0.0581875,-0.0005021560937
0.05820833333,-0.0005139489076
0.05822916667,-0.0005448022857
0.05825,-0.0005391865852
0.05827083333,-0.0005949713523
0.05829166667,-0.0006202305667
0.0583125,-0.0005857654614
0.05833333333,-0.000698465039
0.05835416667,-0.0007704923046
0.058375,-0.0008922745474
0.05839583333,-0.001065870514
0.05841666667,-0.001213928685
0.0584375,-0.001362134586
0.05845833333,-0.001392225036
0.05847916667,-0.001592362532
0.0585,-0.001697633299
0.05852083333,-0.001827300293
0.05854166667,-0.002062282991
0.0585625,-0.002277119318
0.05858333333,-0.002457525581
0.05860416667,-0.002613035263
0.058625,-0.002757767448
0.05864583333,-0.002912087832
0.05866666667,-0.003100660397
0.0586875,-0.003290591994
0.05870833333,-0.003473029239
0.05872916667,-0.003649421968
0.05875,-0.003814864904
0.05877083333,-0.003992972896
0.05879166667,-0.0041733291
0.0588125,-0.004392651841
0.05883333333,-0.004558521789
0.05885416667,-0.004711475223
0.058875,-0.004859029315
0.05889583333,-0.004996847827
0.05891666667,-0.005159325432
0.0589375,-0.005248112138
0.05895833333,-0.005371456966
0.05897916667,-0.005512920208
0.059,-0.005679811817
0.05902083333,-0.005872199312
0.05904166667,-0.006029635202
0.0590625,-0.006177622825
0.05908333333,-0.006273596548
0.05910416667,-0.00634297356
0.059125,-0.00642906921
0.05914583333,-0.006493768655
0.05916666667,-0.006635234691
0.0591875,-0.006760225631
0.05920833333,-0.006870968733
0.05922916667,-0.006948919501
0.05925,-0.007068112493
0.05927083333,-0.007181845605
0.05929166667,-0.007305866107
0.0593125,-0.007469738834
0.05933333333,-0.007608628366
0.05935416667,-0.007755174767
0.059375,-0.007835563272
0.05939583333,-0.007909143344
0.05941666667,-0.008004865609
0.0594375,-0.008105081506
0.05945833333,-0.008175742812
0.05947916667,-0.008176556788
0.0595,-0.008188217878
0.05952083333,-0.008118241094
0.05954166667,-0.008057888597
0.0595625,-0.008010931313
0.05958333333,-0.007981780916
0.05960416667,-0.007992760278
0.059625,-0.00798335392
0.05964583333,-0.007965952158
0.05966666667,-0.007899001241
0.0596875,-0.007850001566
0.05970833333,-0.007804109249
0.05972916667,-0.007784415968
0.05975,-0.007777757943
0.05977083333,-0.00776360184
0.05979166667,-0.007741309702
0.0598125,-0.007696596906
0.05983333333,-0.007667807862
0.05985416667,-0.007621340454
0.059875,-0.007597386837
0.05989583333,-0.007651143707
0.05991666667,-0.007695028558
0.0599375,-0.007783748209
0.05995833333,-0.007798067294
0.05997916667,-0.007827822119
0.06,-0.007868922316
0.06002083333,-0.007857690565
0.06004166667,-0.00787927676
0.0600625,-0.0078869313
0.06008333333,-0.007922772318
0.06010416667,-0.007962070405
0.060125,-0.008020276204
0.06014583333,-0.008082173765
0.06016666667,-0.008090895601
0.0601875,-0.0081474334
0.06020833333,-0.008221620694
0.06022916667,-0.0082362229
0.06025,-0.008201074786
0.06027083333,-0.008176040836
0.06029166667,-0.008184733801
0.0603125,-0.008202156052
0.06033333333,-0.008224613965
0.06035416667,-0.008237227798
0.060375,-0.00828645844
0.06039583333,-0.008333358914
0.06041666667,-0.008416719735
0.0604375,-0.008491137065
0.06045833333,-0.008548542857
0.06047916667,-0.008587226272
0.0605,-0.008649888448
0.06052083333,-0.008721169084
0.06054166667,-0.008783975616
0.0605625,-0.008791643195
0.06058333333,-0.008833937347
0.06060416667,-0.008913206868
0.060625,-0.008956929669
0.06064583333,-0.00904710684
0.06066666667,-0.009135598317
0.0606875,-0.009226093069
0.06070833333,-0.009333427995
0.06072916667,-0.009415737353
0.06075,-0.009517937899
0.06077083333,-0.009619719349
0.06079166667,-0.009715645574
0.0608125,-0.009808545001
0.06083333333,-0.009837249294
0.06085416667,-0.009875942953
0.060875,-0.009925718419
0.06089583333,-0.009962636977
0.06091666667,-0.01000444405
0.0609375,-0.01005539484
0.06095833333,-0.01008815784
0.06097916667,-0.01012567617
0.061,-0.01014528982
0.06102083333,-0.01015544869
0.06104166667,-0.01018258184
0.0610625,-0.01022079028
0.06108333333,-0.01024641469
0.06110416667,-0.01029143762
0.061125,-0.01034645271
0.06114583333,-0.0104259355
0.06116666667,-0.01052259933
0.0611875,-0.01064092014
0.06120833333,-0.01076874975
0.06122916667,-0.01088670827
0.06125,-0.01097694878
0.06127083333,-0.01108487882
0.06129166667,-0.01118636504
0.0613125,-0.01127766259
0.06133333333,-0.01140755415
0.06135416667,-0.01150528993
0.061375,-0.01163866278
0.06139583333,-0.01175284106
0.06141666667,-0.0118223289
0.0614375,-0.01191503555
0.06145833333,-0.01198132336
0.06147916667,-0.01206975244
0.0615,-0.01210751198
0.06152083333,-0.01211595163
0.06154166667,-0.01216462906
0.0615625,-0.01218507718
0.06158333333,-0.01221577171
0.06160416667,-0.01225289796
0.061625,-0.01228663605
0.06164583333,-0.01227433793
0.06166666667,-0.01225610822
0.0616875,-0.01221405249
0.06170833333,-0.01220174972
0.06172916667,-0.01220339537
0.06175,-0.01220342796
0.06177083333,-0.01219958253
0.06179166667,-0.01219155546
0.0618125,-0.01213698834
0.06183333333,-0.012092188
0.06185416667,-0.01205897611
0.061875,-0.01207176689
0.06189583333,-0.01209518407
0.06191666667,-0.01211441215
0.0619375,-0.01212722715
0.06195833333,-0.01215067599
0.06197916667,-0.01216347329
0.062,-0.01218399499
0.06202083333,-0.01216159668
0.06204166667,-0.01210084558
0.0620625,-0.01206112374
0.06208333333,-0.01197829098
0.06210416667,-0.01192362141
0.062125,-0.01188334078
0.06214583333,-0.01181651838
0.06216666667,-0.01176978275
0.0621875,-0.01168074086
0.06220833333,-0.01158943586
0.06222916667,-0.01151792705
0.06225,-0.01147141121
0.06227083333,-0.01143219415
0.06229166667,-0.01139077824
0.0623125,-0.01134080626
0.06233333333,-0.01126451045
0.06235416667,-0.01123488508
0.062375,-0.01116393972
0.06239583333,-0.01111772377
0.06241666667,-0.01108388416
0.0624375,-0.0110671008
0.06245833333,-0.01104737259
0.06247916667,-0.01105189603
0.0625,-0.01104911882
0.06252083333,-0.01109418366
0.06254166667,-0.011136177
0.0625625,-0.01118194219
0.06258333333,-0.01124492195
0.06260416667,-0.01134899165
0.062625,-0.0114719132
0.06264583333,-0.01158381812
0.06266666667,-0.01168764383
0.0626875,-0.01177205518
0.06270833333,-0.01184958313
0.06272916667,-0.01195476577
0.06275,-0.01205606945
0.06277083333,-0.01210686751
0.06279166667,-0.0121154068
0.0628125,-0.01212325972
0.06283333333,-0.01214996818
0.06285416667,-0.01216133684
0.062875,-0.0121970661
0.06289583333,-0.01222617459
0.06291666667,-0.01223236416
0.0629375,-0.01220427267
0.06295833333,-0.01216727402
0.06297916667,-0.0121204704
0.063,-0.0120927291
0.06302083333,-0.01205951069
0.06304166667,-0.0120546259
0.0630625,-0.01202710532
0.06308333333,-0.01195884589
0.06310416667,-0.0118990615
0.063125,-0.01185094472
0.06314583333,-0.01180864219
0.06316666667,-0.01182031445
0.0631875,-0.0118021518
0.06320833333,-0.0117943855
0.06322916667,-0.0117400568
0.06325,-0.01168652344
0.06327083333,-0.01163319685
0.06329166667,-0.01160692517
0.0633125,-0.0115902843
0.06333333333,-0.01157017797
0.06335416667,-0.01155884285
0.063375,-0.01147959568
0.06339583333,-0.01138913352
0.06341666667,-0.01140090358
0.0634375,-0.01140065398
0.06345833333,-0.01142309606
0.06347916667,-0.01145551261
0.0635,-0.01146548335
0.06352083333,-0.0114916265
0.06354166667,-0.01148398593
0.0635625,-0.01148474868
0.06358333333,-0.01150841918
0.06360416667,-0.01153096557
0.063625,-0.01153347082
0.06364583333,-0.01151729375
0.06366666667,-0.01148752123
0.0636875,-0.01149180811
0.06370833333,-0.01147721987
0.06372916667,-0.01152009424
0.06375,-0.01156013831
0.06377083333,-0.01158448216
0.06379166667,-0.01157622132
0.0638125,-0.01153972559
0.06383333333,-0.01151651423
0.06385416667,-0.01152511686
0.063875,-0.01150739938
0.06389583333,-0.01153546385
0.06391666667,-0.01154148951
0.0639375,-0.01156836655
0.06395833333,-0.01158893015
0.06397916667,-0.01155871712
0.064,-0.01154738013
0.06402083333,-0.01153713372
0.06404166667,-0.01148655079
0.0640625,-0.01145248953
0.06408333333,-0.01139273029
0.06410416667,-0.01132416446
0.064125,-0.0112659391
0.06414583333,-0.01124820951
0.06416666667,-0.01121469587
0.0641875,-0.0111690117
0.06420833333,-0.01111026295
0.06422916667,-0.01099609956
0.06425,-0.01092510391
0.06427083333,-0.01084605232
0.06429166667,-0.01075586583
0.0643125,-0.01066442579
0.06433333333,-0.01054512523
0.06435416667,-0.01045111753
0.064375,-0.01037029829
0.06439583333,-0.01024021022
0.06441666667,-0.01017425396
0.0644375,-0.01006757189
0.06445833333,-0.009987889789
0.06447916667,-0.009892140515
0.0645,-0.009795246646
0.06452083333,-0.009719616733
0.06454166667,-0.00963859912
0.0645625,-0.009501711465
0.06458333333,-0.009366892278
0.06460416667,-0.009227624163
0.064625,-0.009127306752
0.06464583333,-0.009062048048
0.06466666667,-0.0089743305
0.0646875,-0.008901473135
0.06470833333,-0.008790284395
0.06472916667,-0.00865887478
0.06475,-0.008559294045
0.06477083333,-0.008468021639
0.06479166667,-0.008402836509
0.0648125,-0.008322516456
0.06483333333,-0.008253479376
0.06485416667,-0.008167033084
0.064875,-0.008058777079
0.06489583333,-0.007972765714
0.06491666667,-0.007891637273
0.0649375,-0.007876410149
0.06495833333,-0.007826665416
0.06497916667,-0.007771183271
0.065,-0.007675221656
0.06502083333,-0.007585708983
0.06504166667,-0.00751340529
0.0650625,-0.007426728029
0.06508333333,-0.007334720809
0.06510416667,-0.007233606186
0.065125,-0.007105790079
0.06514583333,-0.007009134628
0.06516666667,-0.006932446733
0.0651875,-0.00688443426
0.06520833333,-0.00685472507
0.06522916667,-0.006831629202
0.06525,-0.006727186963
0.06527083333,-0.006614878774
0.06529166667,-0.006496373564
0.0653125,-0.00640333863
0.06533333333,-0.006380168721
0.06535416667,-0.006315498613
0.065375,-0.006224106532
0.06539583333,-0.006179453805
0.06541666667,-0.00614479091
0.0654375,-0.006146214902
0.06545833333,-0.006123084575
0.06547916667,-0.006102330983
0.0655,-0.006050349679
0.06552083333,-0.005986350589
0.06554166667,-0.005954789463
0.0655625,-0.005916091613
0.06558333333,-0.005855715368
0.06560416667,-0.005787245464
0.065625,-0.005682529882
0.06564583333,-0.005596289411
0.06566666667,-0.005513905548
0.0656875,-0.005421599839
0.06570833333,-0.005339760799
0.06572916667,-0.005229099654
0.06575,-0.005136756226
0.06577083333,-0.005050338805
0.06579166667,-0.004975985736
0.0658125,-0.004914452322
0.06583333333,-0.004840067122
0.06585416667,-0.004738716409
0.065875,-0.004651300143
0.06589583333,-0.0045340457
0.06591666667,-0.004449611064
0.0659375,-0.004351067357
0.06595833333,-0.00422791997
0.06597916667,-0.004114203621
0.066,-0.004016077146
0.06602083333,-0.003920629621
0.06604166667,-0.003844212042
0.0660625,-0.003749776632
0.06608333333,-0.003631856758
0.06610416667,-0.003480198327
0.066125,-0.003347099759
0.06614583333,-0.00320136128
0.06616666667,-0.003058265196
0.0661875,-0.002899921732
0.06620833333,-0.002717272844
0.06622916667,-0.002578013809
0.06625,-0.002494678833
0.06627083333,-0.002375439275
0.06629166667,-0.002243146999
0.0663125,-0.002086319495
0.06633333333,-0.001980817178
0.06635416667,-0.001861757599
0.066375,-0.001678722212
0.06639583333,-0.001416522311
0.06641666667,-0.001187990303
0.0664375,-0.0009502416942
0.06645833333,-0.0007409232785
0.06647916667,-0.0005570757203
0.0665,-0.0003625323588
0.06652083333,-0.0002404730185
0.06654166667,-9.928419604e-05
0.0665625,-4.621833796e-06
0.06658333333,0.0001071792794
0.06660416667,0.000242013135
0.066625,0.000342183368
0.06664583333,0.0004526853445
0.06666666667,0.0005803477834
0.0666875,0.0006828420446
0.06670833333,0.0008407093119
0.06672916667,0.0009268853464
0.06675,0.001044733799
0.06677083333,0.00114739011
0.06679166667,0.001220734674
0.0668125,0.001309521613
0.06683333333,0.001392173464
0.06685416667,0.001458565006
0.066875,0.001562478836
0.06689583333,0.00165641401
0.06691666667,0.001745826099
0.0669375,0.001806495246
0.06695833333,0.001858708099
0.06697916667,0.001907827333
0.067,0.002008019714
0.06702083333,0.00209654239
0.06704166667,0.002228464466
0.0670625,0.002325435169
0.06708333333,0.002417512704
0.06710416667,0.002478071023
0.067125,0.002477539005
0.06714583333,0.002554002218
0.06716666667,0.002557283035
0.0671875,0.002665079199
0.06720833333,0.002800012473
0.06722916667,0.002784918994
0.06725,0.002864829497
0.06727083333,0.002929759445
0.06729166667,0.002943926258
0.0673125,0.003053038847
0.06733333333,0.003063102486
0.06735416667,0.003131517209
0.067375,0.00320458808
0.06739583333,0.003232462797
0.06741666667,0.003276126692
0.0674375,0.003304894315
0.06745833333,0.003355915193
0.06747916667,0.003380950773
0.0675,0.00337697356
0.06752083333,0.00339090568
0.06754166667,0.003404805204
0.0675625,0.003473038319
0.06758333333,0.00354758231
0.06760416667,0.003611090826
0.067625,0.003642987693
0.06764583333,0.003684015945
0.06766666667,0.003735697363
0.0676875,0.003791554365
0.06770833333,0.003852975089
0.06772916667,0.003921736963
0.06775,0.003980581649
0.06777083333,0.004022470675
0.06779166667,0.004087553825
0.0678125,0.00413925061
0.06783333333,0.004190470092
0.06785416667,0.004271587357
0.067875,0.004327311181
0.06789583333,0.004387163557
0.06791666667,0.0044291839
0.0679375,0.004455303773
0.06795833333,0.004495141096
0.06797916667,0.004505835474
0.068,0.004538659938
0.06802083333,0.004528630525
0.06804166667,0.004507241771
0.0680625,0.004481885582
0.06808333333,0.004465510137
0.06810416667,0.004462309647
0.068125,0.004445798695
0.06814583333,0.004455314949
0.06816666667,0.004456341732
0.0681875,0.004455471877
0.06820833333,0.004531855695
0.06822916667,0.004521559924
0.06825,0.004545362201
0.06827083333,0.004589111544
0.06829166667,0.004644042812
0.0683125,0.004743072204
0.06833333333,0.004789820872
0.06835416667,0.004881691653
0.068375,0.005044919904
0.06839583333,0.005168881267
0.06841666667,0.005340332165
0.0684375,0.005483552348
0.06845833333,0.005628211424
0.06847916667,0.005803756882
0.0685,0.005998593755
0.06852083333,0.006173057482
0.06854166667,0.006354372017
0.0685625,0.00650777109
0.06858333333,0.00661887927
0.06860416667,0.006759683602
0.068625,0.006900446489
0.06864583333,0.007039084565
0.06866666667,0.007160725538
0.0686875,0.007285361178
0.06870833333,0.007406992838
0.06872916667,0.007532848977
0.06875,0.007674678229
0.06877083333,0.007825297303
0.06879166667,0.007947083563
0.0688125,0.00806576293
0.06883333333,0.008195854723
0.06885416667,0.008344766684
0.068875,0.008477765135
0.06889583333,0.008591626771
0.06891666667,0.008696991019
0.0689375,0.008834381588
0.06895833333,0.008980512619
0.06897916667,0.00910405349
0.069,0.009209297597
0.06902083333,0.009331754409
0.06904166667,0.009459411725
0.0690625,0.009607775137
0.06908333333,0.009745186195
0.06910416667,0.0098822359
0.069125,0.01000873093
0.06914583333,0.01011568401
0.06916666667,0.01023415662
0.0691875,0.01035744511
0.06920833333,0.01049456466
0.06922916667,0.01061390713
0.06925,0.01070320699
0.06927083333,0.01077000797
0.06929166667,0.01080198679
0.0693125,0.01082532667
0.06933333333,0.01086074952
0.06935416667,0.01087924838
0.069375,0.01088433433
0.06939583333,0.0108758267
0.06941666667,0.01087850425
0.0694375,0.01089140307
0.06945833333,0.01092625316
0.06947916667,0.01095636748
0.0695,0.01098958217
0.06952083333,0.01100897975
0.06954166667,0.01100823469
0.0695625,0.0109924376
0.06958333333,0.01096159779
0.06960416667,0.01093205623
0.069625,0.01092020143
0.06964583333,0.01089734025
0.06966666667,0.01086398214
0.0696875,0.01084185205
0.06970833333,0.01083892677
0.06972916667,0.0108519569
0.06975,0.01088608801
0.06977083333,0.01091872528
0.06979166667,0.01094298903
0.0698125,0.01095021237
0.06983333333,0.01096438058
0.06985416667,0.0109769199
0.069875,0.0109875286
0.06989583333,0.01100314874
0.06991666667,0.01100869849
0.0699375,0.0110070277
0.06995833333,0.01102204714
0.06997916667,0.01105897129
0.07,0.01110656839
0.07002083333,0.01114748511
0.07004166667,0.011181009
0.0700625,0.01120653749
0.07008333333,0.0112627903
0.07010416667,0.01133014727
0.070125,0.01140491106
0.07014583333,0.0114865154
0.07016666667,0.01153865829
0.0701875,0.01160003804
0.07020833333,0.01165231504
0.07022916667,0.01171111409
0.07025,0.01176433824
0.07027083333,0.01180055272
0.07029166667,0.01181786135
0.0703125,0.01183539629
0.07033333333,0.01186141092
0.07035416667,0.01190458145
0.070375,0.01195602864
0.07039583333,0.01203634404
0.07041666667,0.01212021429
0.0704375,0.01218241546
0.07045833333,0.01223039534
0.07047916667,0.01227056514
0.0705,0.01230460592
0.07052083333,0.01238736045
0.07054166667,0.01246700715
0.0705625,0.01254505012
0.07058333333,0.01258145832
0.07060416667,0.01260334812
0.070625,0.01264762692
0.07064583333,0.01270270441
0.07066666667,0.0127472477
0.0706875,0.01279551629
0.07070833333,0.01284826547
0.07072916667,0.01289154496
0.07075,0.01293549594
0.07077083333,0.01296486054
0.07079166667,0.01297760569
0.0708125,0.01299968082
0.07083333333,0.01301661041
0.07085416667,0.01302469987
0.070875,0.01303238701
0.07089583333,0.01301993988
0.07091666667,0.01301420201
0.0709375,0.01301202271
0.07095833333,0.01303180307
0.07097916667,0.01306593884
0.071,0.01308332011
0.07102083333,0.0130938394
0.07104166667,0.01310525369
0.0710625,0.0131294867
0.07108333333,0.01316624135
0.07110416667,0.01318833232
0.071125,0.01320866495
0.07114583333,0.01322496496
0.07116666667,0.01325550489
0.0711875,0.01329308748
0.07120833333,0.01335517317
0.07122916667,0.01342681423
0.07125,0.01350377407
0.07127083333,0.01358047687
0.07129166667,0.01367123239
0.0713125,0.01376633625
0.07133333333,0.01386629324
0.07135416667,0.01395664737
0.071375,0.01401993725
0.07139583333,0.01409072336
0.07141666667,0.01417737734
0.0714375,0.01428522542
0.07145833333,0.01438043173
0.07147916667,0.01447511278
0.0715,0.01454612426
0.07152083333,0.01461837906
0.07154166667,0.01469608117
0.0715625,0.01474626362
0.07158333333,0.01477164682
0.07160416667,0.01477688272
0.071625,0.01475746371
0.07164583333,0.01471371669
0.07166666667,0.01465698332
0.0716875,0.01459252182
0.07170833333,0.01452971902
0.07172916667,0.014476615
0.07175,0.01440755744
0.07177083333,0.01434526034
0.07179166667,0.01428005565
0.0718125,0.01421061531
0.07183333333,0.0141250873
0.07185416667,0.01404797565
0.071875,0.01396598574
0.07189583333,0.01387537643
0.07191666667,0.01377754379
0.0719375,0.01366690174
0.07195833333,0.01356652752
0.07197916667,0.01347979531
0.072,0.0133878747
0.07202083333,0.01330893859
0.07204166667,0.01324077509
0.0720625,0.01317875925
0.07208333333,0.01310211886
0.07210416667,0.01301939227
0.072125,0.01294800546
0.07214583333,0.01288952865
0.07216666667,0.01282422058
0.0721875,0.01274934597
0.07220833333,0.01267373189
0.07222916667,0.01260381751
0.07225,0.01254709624
0.07227083333,0.01249867119
0.07229166667,0.01245519891
0.0723125,0.01241977792
0.07233333333,0.01238771155
0.07235416667,0.0123423906
0.072375,0.01231236197
0.07239583333,0.01227674913
0.07241666667,0.01223195251
0.0724375,0.01216466818
0.07245833333,0.01211712882
0.07247916667,0.01208013389
0.0725,0.0120524317
0.07252083333,0.01202966738
0.07254166667,0.01199498493
0.0725625,0.01197631378
0.07258333333,0.01197968982
0.07260416667,0.01197345089
0.072625,0.01198229566
0.07264583333,0.01198193058
0.07266666667,0.01200097241
0.0726875,0.0120286122
0.07270833333,0.01206903439
0.07272916667,0.0121084135
0.07275,0.01214655023
0.07277083333,0.01217617374
0.07279166667,0.01221059076
0.0728125,0.01223521214
0.07283333333,0.01228220761
0.07285416667,0.01233717985
0.072875,0.01240468211
0.07289583333,0.01247370057
0.07291666667,0.01252577361
0.0729375,0.01256346796
0.07295833333,0.01259957533
0.07297916667,0.01264174841
0.073,0.01267435122
0.07302083333,0.01271188259
0.07304166667,0.01272500586
0.0730625,0.01273787394
0.07308333333,0.01275754627
0.07310416667,0.01277831569
0.073125,0.01280499715
0.07314583333,0.01282835193
0.07316666667,0.01283465978
0.0731875,0.01282721758
0.07320833333,0.01279021986
0.07322916667,0.01275946107
0.07325,0.01274333429
0.07327083333,0.01274341438
0.07329166667,0.01271571685
0.0733125,0.01269490458
0.07333333333,0.01265963353
0.07335416667,0.01263982709
0.073375,0.01263045706
0.07339583333,0.01262380462
0.07341666667,0.01262321789
0.0734375,0.01263482776
0.07345833333,0.01264334563
0.07347916667,0.0126605276
0.0735,0.0126515571
0.07352083333,0.01262609288
0.07354166667,0.01254657935
0.0735625,0.01247291174
0.07358333333,0.0124134263
0.07360416667,0.01235375553
0.073625,0.01228706166
0.07364583333,0.01222587936
0.07366666667,0.01217417791
0.0736875,0.01213540323
0.07370833333,0.01210233942
0.07372916667,0.01204305142
0.07375,0.01197817177
0.07377083333,0.01191648562
0.07379166667,0.01183825266
0.0738125,0.01174691971
0.07383333333,0.01165811438
0.07385416667,0.01156892348
0.073875,0.01148495823
0.07389583333,0.01139377337
0.07391666667,0.01131674368
0.0739375,0.01121686026
0.07395833333,0.01110215019
0.07397916667,0.01096767373
0.074,0.0108569013
0.07402083333,0.01076039299
0.07404166667,0.01067223586
0.0740625,0.01057321951
0.07408333333,0.01046065241
0.07410416667,0.0103401579
0.074125,0.01021948084
0.07414583333,0.01009672601
0.07416666667,0.009984533302
0.0741875,0.009853077121
0.07420833333,0.009735595435
0.07422916667,0.009605673142
0.07425,0.009482489899
0.07427083333,0.009377877228
0.07429166667,0.009280031547
0.0743125,0.009190764278
0.07433333333,0.009089970961
0.07435416667,0.008961183019
0.074375,0.008825316094
0.07439583333,0.008710840717
0.07441666667,0.008609060198
0.0744375,0.008512113243
0.07445833333,0.008412912488
0.07447916667,0.00831915345
0.0745,0.008211862296
0.07452083333,0.008090749383
0.07454166667,0.00797710754
0.0745625,0.0078669535
0.07458333333,0.007750669494
0.07460416667,0.007652588654
0.074625,0.007548402995
0.07464583333,0.007457070518
0.07466666667,0.007383569144
0.0746875,0.007315679919
0.07470833333,0.007231290918
0.07472916667,0.007159328088
0.07475,0.007085913792
0.07477083333,0.007026343141
0.07479166667,0.006977098063
0.0748125,0.006905552465
0.07483333333,0.00681657996
0.07485416667,0.006728745531
0.074875,0.006625710521
0.07489583333,0.006532541942
0.07491666667,0.006417674012
0.0749375,0.006281991489
0.07495833333,0.006138781551
0.07497916667,0.005998846143
0.075,0.005875363015
0.07502083333,0.005766879302
0.07504166667,0.005672481377
0.0750625,0.005577384029
0.07508333333,0.005484918598
0.07510416667,0.005418843124
0.075125,0.00535563333
0.07514583333,0.005290490109
0.07516666667,0.00523545919
0.0751875,0.005193991121
0.07520833333,0.005150209647
0.07522916667,0.005095065106
0.07525,0.005044950172
0.07527083333,0.004996084608
0.07529166667,0.004984064028
0.0753125,0.004969955888
0.07533333333,0.004951668903
0.07535416667,0.004918655846
0.075375,0.00487803435
0.07539583333,0.004844733048
0.07541666667,0.004822771996
0.0754375,0.004803791177
0.07545833333,0.004802093375
0.07547916667,0.004788626451
0.0755,0.004801429342
0.07552083333,0.004812458064
0.07554166667,0.00481112022
0.0755625,0.004808968864
0.07558333333,0.004793568514
0.07560416667,0.004779041745
0.075625,0.004760368261
0.07564583333,0.004741874989
0.07566666667,0.004734131508
0.0756875,0.004709640983
0.07570833333,0.004668707028
0.07572916667,0.004629694391
0.07575,0.004584834445
0.07577083333,0.004523893818
0.07579166667,0.004458676092
0.0758125,0.004400487524
0.07583333333,0.004351898562
0.07585416667,0.004312191624
0.075875,0.004263534211
0.07589583333,0.004196553025
0.07591666667,0.004097668454
0.0759375,0.00400740793
0.07595833333,0.003928313032
0.07597916667,0.003857155796
0.076,0.003764176974
0.07602083333,0.003649422899
0.07604166667,0.003529204754
0.0760625,0.00343122147
0.07608333333,0.003332093358
0.07610416667,0.003238373203
0.076125,0.003139855107
0.07614583333,0.003049927065
0.07616666667,0.002961741062
0.0761875,0.002862631343
0.07620833333,0.002777072135
0.07622916667,0.002693566727
0.07625,0.002583752852
0.07627083333,0.002462925157
0.07629166667,0.002330905991
0.0763125,0.002220724244
0.07633333333,0.002124783583
0.07635416667,0.002010172931
0.076375,0.001915893634
0.07639583333,0.001826516236
0.07641666667,0.001754218363
0.0764375,0.001685285592
0.07645833333,0.001608490711
0.07647916667,0.001530084293
0.0765,0.00142686232
0.07652083333,0.001303191297
0.07654166667,0.001208689879
0.0765625,0.001119740657
0.07658333333,0.001066796598
0.07660416667,0.0009806287708
0.076625,0.0009331870824
0.07664583333,0.0008654181147
0.07666666667,0.0007713115774
0.0766875,0.0006831800565
0.07670833333,0.000602172222
0.07672916667,0.0005153852399
0.07675,0.0004203889112
0.07677083333,0.0003238618083
0.07679166667,0.0002197547583
0.0768125,0.0001227981993
0.07683333333,3.598912735e-05
0.07685416667,-5.813353346e-05
0.076875,-0.0001511090668
0.07689583333,-0.0002499960246
0.07691666667,-0.0003521865874
0.0769375,-0.0004545176052
0.07695833333,-0.0005567327607
0.07697916667,-0.0006460936856
0.077,-0.0007352096727
0.07702083333,-0.000822163187
0.07704166667,-0.0009295424097
0.0770625,-0.001036623493
0.07708333333,-0.001141306129
0.07710416667,-0.001230093301
0.077125,-0.001318017603
0.07714583333,-0.0013840592
0.07716666667,-0.00144778064
0.0771875,-0.001505134744
0.07720833333,-0.001563561498
0.07722916667,-0.001599589246
0.07725,-0.001639699098
0.07727083333,-0.001666852273
0.07729166667,-0.001693625003
0.0773125,-0.001712205238
0.07733333333,-0.001719421824
0.07735416667,-0.001718844404
0.077375,-0.001723047695
0.07739583333,-0.001704364433
0.07741666667,-0.001664135023
0.0774375,-0.001633971464
0.07745833333,-0.00164277968
0.07747916667,-0.001607554965
0.0775,-0.001539619523
0.07752083333,-0.001481401501
0.07754166667,-0.001420385437
0.0775625,-0.001400830341
0.07758333333,-0.001418985426
0.07760416667,-0.00141655968
0.077625,-0.001407022355
0.07764583333,-0.001382496324
0.07766666667,-0.001347885351
0.0776875,-0.001355512766
0.07770833333,-0.001374061103
0.07772916667,-0.00141058024
0.07775,-0.001441536471
0.07777083333,-0.001477405429
0.07779166667,-0.001494446071
0.0778125,-0.00152278319
0.07783333333,-0.001541144797
0.07785416667,-0.00156291551
0.077875,-0.001579603879
0.07789583333,-0.001597131952
0.07791666667,-0.001614831854
0.0779375,-0.001647253637
0.07795833333,-0.001666735625
0.07797916667,-0.001683747629
0.078,-0.00167507329
0.07802083333,-0.001657332527
0.07804166667,-0.00165239512
0.0780625,-0.001669965452
0.07808333333,-0.001697320258
0.07810416667,-0.00173353171
0.078125,-0.001766148023
0.07814583333,-0.001782608335
0.07816666667,-0.001799993799
0.0781875,-0.001818926074
0.07820833333,-0.001846621744
0.07822916667,-0.001881305943
0.07825,-0.00191871787
0.07827083333,-0.001940674148
0.07829166667,-0.001960656373
0.0783125,-0.001994285733
0.07833333333,-0.002041120548
0.07835416667,-0.002106260043
0.078375,-0.002181016374
0.07839583333,-0.002232670086
0.07841666667,-0.002303823829
0.0784375,-0.002390045905
0.07845833333,-0.002496928908
0.07847916667,-0.002610419178
0.0785,-0.00272774091
0.07852083333,-0.002837240463
0.07854166667,-0.002936830046
0.0785625,-0.003014720744
0.07858333333,-0.003126522293
0.07860416667,-0.003264375264
0.078625,-0.003425237257
0.07864583333,-0.003583186772
0.07866666667,-0.003734868485
0.0786875,-0.003881876124
0.07870833333,-0.004025585949
0.07872916667,-0.00419439096
0.07875,-0.004382632207
0.07877083333,-0.004556374624
0.07879166667,-0.004744578619
0.0788125,-0.004927757662
0.07883333333,-0.005130839068
0.07885416667,-0.005346558522
0.078875,-0.00555767864
0.07889583333,-0.005764747038
0.07891666667,-0.005954651162
0.0789375,-0.006142250262
0.07895833333,-0.006324413698
0.07897916667,-0.006498381495
0.079,-0.006661534309
0.07902083333,-0.00681325933
0.07904166667,-0.006968529429
0.0790625,-0.00712602539
0.07908333333,-0.007274669129
0.07910416667,-0.007425289135
0.079125,-0.007575483061
0.07914583333,-0.007732463069
0.07916666667,-0.007874069735
0.0791875,-0.007997572422
0.07920833333,-0.008114165626
0.07922916667,-0.008235966787
0.07925,-0.008370365947
0.07927083333,-0.008483557031
0.07929166667,-0.008567092009
0.0793125,-0.008641600609
0.07933333333,-0.008699556813
0.07935416667,-0.008766544983
0.079375,-0.008820542134
0.07939583333,-0.008861530572
0.07941666667,-0.008885484189
0.0794375,-0.008898930624
0.07945833333,-0.008903650567
0.07947916667,-0.008892163634
0.0795,-0.008882118389
0.07952083333,-0.00884100236
0.07954166667,-0.008796759881
0.0795625,-0.00874555856
0.07958333333,-0.008678343147
0.07960416667,-0.00862063095
0.079625,-0.008559127338
0.07964583333,-0.008494995534
0.07966666667,-0.008431048132
0.0796875,-0.00835424196
0.07970833333,-0.008295726962
0.07972916667,-0.008255142719
0.07975,-0.008235726506
0.07977083333,-0.008216830902
0.07979166667,-0.00820137281
0.0798125,-0.008194582537
0.07983333333,-0.00816677697
0.07985416667,-0.008130313829
0.079875,-0.00810622517
0.07989583333,-0.008082654327
0.07991666667,-0.008085107431
0.0799375,-0.008080387488
0.07995833333,-0.008076589555
0.07997916667,-0.008066886105
0.08,-0.008023534901
0.08002083333,-0.007984989323
0.08004166667,-0.007932598703
0.0800625,-0.007884347811
0.08008333333,-0.007875472307
0.08010416667,-0.0078785941
0.080125,-0.007873634808
0.08014583333,-0.007872582413
0.08016666667,-0.007874829695
0.0801875,-0.007884408347
0.08020833333,-0.007894580252
0.08022916667,-0.007918685675
0.08025,-0.007942031138
0.08027083333,-0.007987556979
0.08029166667,-0.008046205156
0.0803125,-0.008101346903
0.08033333333,-0.008162687533
0.08035416667,-0.008229906671
0.080375,-0.008315793239
0.08039583333,-0.008414676413
0.08041666667,-0.00851245597
0.0804375,-0.008607568219
0.08045833333,-0.008708576672
0.08047916667,-0.008818253875
0.0805,-0.008914387785
0.08052083333,-0.009000740945
0.08054166667,-0.009079335257
0.0805625,-0.009173814207
0.08058333333,-0.009239296429
0.08060416667,-0.009288232774
0.080625,-0.00932117831
0.08064583333,-0.009359002113
0.08066666667,-0.009410741739
0.0806875,-0.00942825526
0.08070833333,-0.009439300746
0.08072916667,-0.009450752288
0.08075,-0.009438110515
0.08077083333,-0.009413336404
0.08079166667,-0.009368314408
0.0808125,-0.009328228422
0.08083333333,-0.009304000996
0.08085416667,-0.009281809442
0.080875,-0.009263213724
0.08089583333,-0.009237726219
0.08091666667,-0.009218578227
0.0809375,-0.009205617011
0.08095833333,-0.009191825986
0.08097916667,-0.009163188748
0.081,-0.009136556648
0.08102083333,-0.009130829945
0.08104166667,-0.009122112766
0.0810625,-0.009103494696
0.08108333333,-0.009106927551
0.08110416667,-0.009113266133
0.081125,-0.009133484215
0.08114583333,-0.009153593332
0.08116666667,-0.009162642993
0.0811875,-0.009178860113
0.08120833333,-0.009202267975
0.08122916667,-0.009222557768
0.08125,-0.009249785915
0.08127083333,-0.009275232442
0.08129166667,-0.009321155027
0.0813125,-0.00935630966
0.08133333333,-0.009384925477
0.08135416667,-0.00941817183
0.081375,-0.009449621662
0.08139583333,-0.00949970074
0.08141666667,-0.009563923813
0.0814375,-0.009641212411
0.08145833333,-0.00973173324
0.08147916667,-0.009816236794
0.0815,-0.0099227475
0.08152083333,-0.01002207864
0.08154166667,-0.01010614913
0.0815625,-0.01020957343
0.08158333333,-0.01030131429
0.08160416667,-0.01040284242
0.081625,-0.0104789678
0.08164583333,-0.01052537467
0.08166666667,-0.01058072783
0.0816875,-0.01064771879
0.08170833333,-0.01071587391
0.08172916667,-0.01075949427
0.08175,-0.01077916101
0.08177083333,-0.01079584379
0.08179166667,-0.01079774648
0.0818125,-0.01080843899
0.08183333333,-0.01080094092
0.08185416667,-0.01077283453
0.081875,-0.01072508469
0.08189583333,-0.01065906603
0.08191666667,-0.0105849877
0.0819375,-0.01051231101
0.08195833333,-0.01042932738
0.08197916667,-0.01035880856
0.082,-0.01027873997
0.08202083333,-0.01018131617
0.08204166667,-0.01006646268
0.0820625,-0.009946895763
0.08208333333,-0.009831803851
0.08210416667,-0.009731742553
0.082125,-0.009632771835
0.08214583333,-0.009541435167
0.08216666667,-0.009441973642
0.0821875,-0.009335910901
0.08220833333,-0.009234516881
0.08222916667,-0.009141221642
0.08225,-0.009059372358
0.08227083333,-0.008971961215
0.08229166667,-0.008890767582
0.0823125,-0.008820554242
0.08233333333,-0.008741157129
0.08235416667,-0.008675779216
0.082375,-0.008604720235
0.08239583333,-0.008546806872
0.08241666667,-0.008531677537
0.0824375,-0.008521747775
0.08245833333,-0.008538626134
0.08247916667,-0.008567039855
0.0825,-0.008587652817
0.08252083333,-0.008602507412
0.08254166667,-0.008616006933
0.0825625,-0.008645421825
0.08258333333,-0.008674920537
0.08260416667,-0.008715556003
0.082625,-0.008797758259
0.08264583333,-0.008865118027
0.08266666667,-0.008964570239
0.0826875,-0.009066210128
0.08270833333,-0.009181234054
0.08272916667,-0.009328053333
0.08275,-0.009448095225
0.08277083333,-0.009561521932
0.08279166667,-0.009658806026
0.0828125,-0.009730765596
0.08283333333,-0.009811453521
0.08285416667,-0.009865419008
0.082875,-0.009933966212
0.08289583333,-0.01000542752
0.08291666667,-0.01007553935
0.0829375,-0.01013530325
0.08295833333,-0.01017097011
0.08297916667,-0.01020845864
0.083,-0.01024427917
0.08302083333,-0.01028045546
0.08304166667,-0.01032411028
0.0830625,-0.01036048215
0.08308333333,-0.01036549732
0.08310416667,-0.01036895253
0.083125,-0.01039363258
0.08314583333,-0.01040239353
0.08316666667,-0.010407364
0.0831875,-0.01040855888
0.08320833333,-0.01040012483
0.08322916667,-0.01040373836
0.08325,-0.01039663143
0.08327083333,-0.01040209364
0.08329166667,-0.01041679084
0.0833125,-0.01043858379
0.08333333333,-0.01045504212
0.08335416667,-0.01047685556
0.083375,-0.01049136929
0.08339583333,-0.01052014437
0.08341666667,-0.0105460044
0.0834375,-0.01057719719
0.08345833333,-0.01060654875
0.08347916667,-0.01063920464
0.0835,-0.01067101955
0.08352083333,-0.0107202474
0.08354166667,-0.01075923909
0.0835625,-0.01079437695
0.08358333333,-0.01082214527
0.08360416667,-0.01084455941
0.083625,-0.01082873903
0.08364583333,-0.01083045267
0.08366666667,-0.01085727941
0.0836875,-0.01088641956
0.08370833333,-0.01093231421
0.08372916667,-0.01095200609
0.08375,-0.01094873995
0.08377083333,-0.01095286664
0.08379166667,-0.01096426509
0.0838125,-0.01096433308
0.08383333333,-0.01093754359
0.08385416667,-0.01092463173
0.083875,-0.01090715267
0.08389583333,-0.01089479029
0.08391666667,-0.01087767445
0.0839375,-0.01082607079
0.08395833333,-0.01078379806
0.08397916667,-0.01072119828
0.084,-0.01065091603
0.08402083333,-0.0105704451
0.08404166667,-0.01048045978
0.0840625,-0.01039056107
0.08408333333,-0.01029622648
0.08410416667,-0.01018367894
0.084125,-0.01007615123
0.08414583333,-0.009960207157
0.08416666667,-0.009859612212
0.0841875,-0.009751341306
0.08420833333,-0.009646896273
0.08422916667,-0.009539135732
0.08425,-0.009444863535
0.08427083333,-0.00934899319
0.08429166667,-0.009250624105
0.0843125,-0.009163204581
0.08433333333,-0.009087812155
0.08435416667,-0.009010386653
0.084375,-0.008944863454
0.08439583333,-0.008878917433
0.08441666667,-0.008801663294
0.0844375,-0.00873823557
0.08445833333,-0.008692334406
0.08447916667,-0.008617963642
0.0845,-0.008551400155
0.08452083333,-0.008496635593
0.08454166667,-0.008433999494
0.0845625,-0.008361174725
0.08458333333,-0.008291905746
0.08460416667,-0.008220644668
0.084625,-0.008144415915
0.08464583333,-0.00808428973
0.08466666667,-0.008045924827
0.0846875,-0.007968531922
0.08470833333,-0.007920095697
0.08472916667,-0.007901879959
0.08475,-0.007850712165
0.08477083333,-0.007812636904
0.08479166667,-0.007779169828
0.0848125,-0.007750347257
0.08483333333,-0.007743034046
0.08485416667,-0.007727924734
0.084875,-0.007718750276
0.08489583333,-0.0076879384
0.08491666667,-0.007648452185
0.0849375,-0.0076219365
0.08495833333,-0.007584508508
0.08497916667,-0.007572870236
0.085,-0.007513583172
0.08502083333,-0.00744893495
0.08504166667,-0.007381412666
0.0850625,-0.007310084999
0.08508333333,-0.007265259977
0.08510416667,-0.007200577296
0.085125,-0.007135054097
0.08514583333,-0.007082324475
0.08516666667,-0.007016078569
0.0851875,-0.006955001969
0.08520833333,-0.006884174421
0.08522916667,-0.006837951019
0.08525,-0.006784164812
0.08527083333,-0.006749811582
0.08529166667,-0.006722128019
0.0853125,-0.00669062743
0.08533333333,-0.006665452383
0.08535416667,-0.006642447319
0.085375,-0.00663510384
0.08539583333,-0.006639946718
0.08541666667,-0.006651465781
0.0854375,-0.006674650591
0.08545833333,-0.006694108713
0.08547916667,-0.006730036344
0.0855,-0.006765768863
0.08552083333,-0.006779080722
0.08554166667,-0.006817738991
0.0855625,-0.006838060915
0.08558333333,-0.00687157549
0.08560416667,-0.006881830283
0.085625,-0.006860300433
0.08564583333,-0.006853904109
0.08566666667,-0.006826169323
0.0856875,-0.00683150813
0.08570833333,-0.006820525043
0.08572916667,-0.006780394353
0.08575,-0.006746560801
0.08577083333,-0.006695656106
0.08579166667,-0.006627845112
0.0858125,-0.006539396942
0.08583333333,-0.006449536886
0.08585416667,-0.006368107162
0.085875,-0.006264377851
0.08589583333,-0.006154743023
0.08591666667,-0.006036769599
0.0859375,-0.005894925911
0.08595833333,-0.005762651563
0.08597916667,-0.00563738402
0.086,-0.005529210903
0.08602083333,-0.005415369291
0.08604166667,-0.005307536572
0.0860625,-0.005209067371
0.08608333333,-0.005116886925
0.08610416667,-0.005028363317
0.086125,-0.004927566275
0.08614583333,-0.004847068805
0.08616666667,-0.004745429847
0.0861875,-0.004651114345
0.08620833333,-0.004544450901
0.08622916667,-0.004434802569
0.08625,-0.004350619391
0.08627083333,-0.004244505428
0.08629166667,-0.004123821855
0.0863125,-0.004017968196
0.08633333333,-0.00387235079
0.08635416667,-0.00377207296
0.086375,-0.003646605182
0.08639583333,-0.0035311752
0.08641666667,-0.003422791604
0.0864375,-0.003286869731
0.08645833333,-0.003151676152
0.08647916667,-0.003016979899
0.0865,-0.002869249787
0.08652083333,-0.002741381759
0.08654166667,-0.002581353765
0.0865625,-0.002433202928
0.08658333333,-0.00230036024
0.08660416667,-0.002172892448
0.086625,-0.001986345975
0.08664583333,-0.001814290066
0.08666666667,-0.001617997186
0.0866875,-0.001415383536
0.08670833333,-0.001221104525
0.08672916667,-0.001003626268
0.08675,-0.0008420118829
0.08677083333,-0.0006885976763
0.08679166667,-0.0005168644129
0.0868125,-0.0003767936432
0.08683333333,-0.0002258422319
0.08685416667,-7.983989781e-05
0.086875,6.439315621e-05
0.08689583333,0.000189973216
0.08691666667,0.0002957360412
0.0869375,0.0003730180615
0.08695833333,0.0004477144103
0.08697916667,0.0005352231674
0.087,0.0006200340576
0.08702083333,0.000697713811
0.08704166667,0.0007660587435
0.0870625,0.0008340276545
0.08708333333,0.0008706243243
0.08710416667,0.0009096484282
0.087125,0.0009421349969
0.08714583333,0.0009554292774
0.08716666667,0.0009764702991
0.0871875,0.0009852233343
0.08720833333,0.0009591648122
0.08722916667,0.0009566802764
0.08725,0.0009475244442
0.08727083333,0.0009500789456
0.08729166667,0.0009556798032
0.0873125,0.0009479856817
0.08733333333,0.0009623665828
0.08735416667,0.001037156326
0.087375,0.001085955882
0.08739583333,0.001134562539
0.08741666667,0.001139186439
0.0874375,0.001181717264
0.08745833333,0.001265440485
0.08747916667,0.001273224829
0.0875,0.001315136091
0.08752083333,0.001391728059
0.08754166667,0.00143190613
0.0875625,0.001475574099
0.08758333333,0.001503258711
0.08760416667,0.001519952319
0.087625,0.001555454452
0.08764583333,0.00155496574
0.08766666667,0.001552495174
0.0876875,0.0015668493
0.08770833333,0.001580512035
0.08772916667,0.00160057703
0.08775,0.001612519147
0.08777083333,0.001599248615
0.08779166667,0.001583163394
0.0878125,0.001554401359
0.08783333333,0.001519900281
0.08785416667,0.001493624062
0.087875,0.001463904744
0.08789583333,0.001450403011
0.08791666667,0.001450484386
0.0879375,0.001443372341
0.08795833333,0.001470242278
0.08797916667,0.001464542118
0.088,0.001449701726
0.08802083333,0.001428403892
0.08804166667,0.001433793106
0.0880625,0.001429282594
0.08808333333,0.001427735901
0.08810416667,0.001441054745
0.088125,0.001459294697
0.08814583333,0.001461879932
0.08816666667,0.001484828768
0.0881875,0.001489162329
0.08820833333,0.001487946371
0.08822916667,0.001485639252
0.08825,0.001504739048
0.08827083333,0.001541924663
0.08829166667,0.001586338738
0.0883125,0.00162770669
0.08833333333,0.00169002905
0.08835416667,0.001728751697
0.088375,0.001784605556
0.08839583333,0.001850808971
0.08841666667,0.001920151524
0.0884375,0.002053922042
0.08845833333,0.00212518964
0.08847916667,0.00224190508
0.0885,0.002404227387
0.08852083333,0.002491146326
0.08854166667,0.002633607015
0.0885625,0.002793214284
0.08858333333,0.002922121668
