time,data
0,-2.303404223e-08
2.083333333e-05,-1.576896835e-08
4.166666667e-05,-8.769702298e-09
6.25e-05,-2.080857042e-09
8.333333333e-05,4.653594843e-09
0.0001041666667,1.16477743e-08
0.000125,1.903594438e-08
0.0001458333333,2.672929966e-08
0.0001666666667,3.445229169e-08
0.0001875,4.218904337e-08
0.0002083333333,4.992568492e-08
0.0002291666667,5.804450609e-08
0.00025,6.670508412e-08
0.0002708333333,7.600771568e-08
0.0002916666667,8.577779198e-08
0.0003125,9.566394965e-08
0.0003333333333,1.055712389e-07
0.0003541666667,1.153636333e-07
0.000375,1.253245614e-07
0.0003958333333,1.354976007e-07
0.0004166666667,1.459258812e-07
0.0004375,1.564243775e-07
0.0004583333333,1.666529101e-07
0.0004791666667,1.765497188e-07
0.0005,1.859796441e-07
0.0005208333333,1.952683277e-07
0.0005416666667,2.045062502e-07
0.0005625,2.138734061e-07
0.0005833333333,2.232636689e-07
0.0006041666667,2.324071033e-07
0.000625,2.411564708e-07
0.0006458333333,2.492494673e-07
0.0006666666667,2.568916102e-07
0.0006875,2.640845764e-07
0.0007083333333,2.710337128e-07
0.0007291666667,2.775790904e-07
0.00075,2.83355746e-07
0.0007708333333,2.880626084e-07
0.0007916666667,2.912657919e-07
0.0008125,2.932544874e-07
0.0008333333333,2.941613957e-07
0.0008541666667,2.945212145e-07
0.000875,2.943475579e-07
0.0008958333333,2.933421968e-07
0.0009166666667,2.911751267e-07
0.0009375,2.873949256e-07
0.0009583333333,2.824152148e-07
0.0009791666667,2.765783051e-07
0.001,2.705093323e-07
0.001020833333,2.641764638e-07
0.001041666667,2.569578328e-07
0.0010625,2.48218754e-07
0.001083333333,2.373129604e-07
0.001104166667,2.246777342e-07
0.001125,2.108059078e-07
0.001145833333,1.964565826e-07
0.001166666667,1.815381125e-07
0.0011875,1.654438222e-07
0.001208333333,1.474790423e-07
0.001229166667,1.273254071e-07
0.00125,1.057480219e-07
0.001270833333,8.361819681e-08
0.001291666667,6.189273449e-08
0.0013125,4.040553492e-08
0.001333333333,1.844998998e-08
0.001354166667,-4.759716177e-09
0.001375,-2.961209589e-08
0.001395833333,-5.527626001e-08
0.001416666667,-8.112369443e-08
0.0014375,-1.063489137e-07
0.001458333333,-1.3146078e-07
0.001479166667,-1.572655748e-07
0.0015,-1.84519422e-07
0.001520833333,-2.134221262e-07
0.001541666667,-2.429839867e-07
0.0015625,-2.723704426e-07
0.001583333333,-3.007031921e-07
0.001604166667,-3.281746501e-07
0.001625,-3.553419674e-07
0.001645833333,-3.826200441e-07
0.001666666667,-4.100878925e-07
0.0016875,-4.368310442e-07
0.001708333333,-4.622641541e-07
0.001729166667,-4.856682949e-07
0.00175,-5.074787737e-07
0.001770833333,-5.282222446e-07
0.001791666667,-5.486592158e-07
0.0018125,-5.690848184e-07
0.001833333333,-5.890225907e-07
0.001854166667,-6.080273351e-07
0.001875,-6.252569165e-07
0.001895833333,-6.407550472e-07
0.001916666667,-6.54715393e-07
0.0019375,-6.67587301e-07
0.001958333333,-6.797732226e-07
0.001979166667,-6.905974601e-07
0.002,-6.995430795e-07
0.002020833333,-7.05293985e-07
0.002041666667,-7.076757811e-07
0.0020625,-7.069389767e-07
0.002083333333,-7.040429182e-07
0.002104166667,-7.000276696e-07
0.002125,-6.948419582e-07
0.002145833333,-6.879890861e-07
0.002166666667,-6.783114941e-07
0.0021875,-6.654056506e-07
0.002208333333,-6.499577125e-07
0.002229166667,-6.331635518e-07
0.00225,-6.163295438e-07
0.002270833333,-5.991505532e-07
0.002291666667,-5.804819239e-07
0.0023125,-5.584248015e-07
0.002333333333,-5.322556831e-07
0.002354166667,-5.025161158e-07
0.002375,-4.709024211e-07
0.002395833333,-4.386850776e-07
0.002416666667,-4.057850163e-07
0.0024375,-3.708239547e-07
0.002458333333,-3.321694351e-07
0.002479166667,-2.895543503e-07
0.0025,-2.443608764e-07
0.002520833333,-1.988405955e-07
0.002541666667,-1.547279567e-07
0.0025625,-1.116603912e-07
0.002583333333,-6.825668208e-08
0.002604166667,-2.250753539e-08
0.002625,2.578534364e-08
0.002645833333,7.552640824e-08
0.002666666667,1.24782602e-07
0.0026875,1.724908714e-07
0.002708333333,2.193783217e-07
0.002729166667,2.672161372e-07
0.00275,3.17588956e-07
0.002770833333,3.706527423e-07
0.002791666667,4.247314962e-07
0.0028125,4.779424216e-07
0.002833333333,5.287339491e-07
0.002854166667,5.774892315e-07
0.002875,6.251272566e-07
0.002895833333,6.727686923e-07
0.002916666667,7.202026495e-07
0.0029375,7.662282542e-07
0.002958333333,8.092987969e-07
0.002979166667,8.48561001e-07
0.003,8.84384292e-07
0.003020833333,9.180880056e-07
0.003041666667,9.509011534e-07
0.0030625,9.835432593e-07
0.003083333333,1.015319071e-06
0.003104166667,1.04531739e-06
0.003125,1.072164196e-06
0.003145833333,1.095752282e-06
0.003166666667,1.116316639e-06
0.0031875,1.134944227e-06
0.003208333333,1.152037612e-06
0.003229166667,1.16709748e-06
0.00325,1.178693992e-06
0.003270833333,1.184964731e-06
0.003291666667,1.185141514e-06
0.0033125,1.17981233e-06
0.003333333333,1.170648488e-06
0.003354166667,1.159682597e-06
0.003375,1.146926138e-06
0.003395833333,1.131779868e-06
0.003416666667,1.111878078e-06
0.0034375,1.086801603e-06
0.003458333333,1.057269742e-06
0.003479166667,1.025769848e-06
0.0035,9.94440029e-07
0.003520833333,9.630557543e-07
0.003541666667,9.295707741e-07
0.0035625,8.907718438e-07
0.003583333333,8.451154372e-07
0.003604166667,7.937915711e-07
0.003625,7.393445571e-07
0.003645833333,6.845547205e-07
0.003666666667,6.28888813e-07
0.0036875,5.705063586e-07
0.003708333333,5.061811521e-07
0.003729166667,4.357626153e-07
0.00375,3.6128435e-07
0.003770833333,2.868844149e-07
0.003791666667,2.152908394e-07
0.0038125,1.461634014e-07
0.003833333333,7.693716242e-08
0.003854166667,4.360988015e-09
0.003875,-7.206466535e-08
0.003895833333,-1.503346283e-07
0.003916666667,-2.274012445e-07
0.0039375,-3.011370211e-07
0.003958333333,-3.733202618e-07
0.003979166667,-4.462666539e-07
0.004,-5.234775244e-07
0.004020833333,-6.04304546e-07
0.004041666667,-6.867177262e-07
0.0040625,-7.668886042e-07
0.004083333333,-8.42718805e-07
0.004104166667,-9.147246942e-07
0.004125,-9.845530258e-07
0.004145833333,-1.054201221e-06
0.004166666667,-1.12314558e-06
0.0041875,-1.189403974e-06
0.004208333333,-1.250469495e-06
0.004229166667,-1.304710622e-06
0.00425,-1.353468974e-06
0.004270833333,-1.398204972e-06
0.004291666667,-1.442106623e-06
0.0043125,-1.485018856e-06
0.004333333333,-1.52695452e-06
0.004354166667,-1.565198318e-06
0.004375,-1.598431027e-06
0.004395833333,-1.626199833e-06
0.004416666667,-1.649144792e-06
0.0044375,-1.669458925e-06
0.004458333333,-1.687156896e-06
0.004479166667,-1.701876386e-06
0.0045,-1.710767833e-06
0.004520833333,-1.710911647e-06
0.004541666667,-1.701814767e-06
0.0045625,-1.683588266e-06
0.004583333333,-1.66066684e-06
0.004604166667,-1.634309456e-06
0.004625,-1.606343631e-06
0.004645833333,-1.573874442e-06
0.004666666667,-1.53447013e-06
0.0046875,-1.486999281e-06
0.004708333333,-1.432876047e-06
0.004729166667,-1.376762611e-06
0.00475,-1.321033324e-06
0.004770833333,-1.26613736e-06
0.004791666667,-1.207916171e-06
0.0048125,-1.141544772e-06
0.004833333333,-1.065286938e-06
0.004854166667,-9.800403404e-07
0.004875,-8.918350431e-07
0.004895833333,-8.02661134e-07
0.004916666667,-7.13950044e-07
0.0049375,-6.204229521e-07
0.004958333333,-5.188043701e-07
0.004979166667,-4.079622613e-07
0.005,-2.915266748e-07
0.005020833333,-1.764998103e-07
0.005041666667,-6.605473857e-08
0.0050625,3.923086211e-08
0.005083333333,1.445764752e-07
0.005104166667,2.543579285e-07
0.005125,3.691799861e-07
0.005145833333,4.868203973e-07
0.005166666667,6.007115303e-07
0.0051875,7.101375559e-07
0.005208333333,8.150016129e-07
0.005229166667,9.217723118e-07
0.00525,1.033300464e-06
0.005270833333,1.150362664e-06
0.005291666667,1.268961341e-06
0.0053125,1.383259018e-06
0.005333333333,1.490951945e-06
0.005354166667,1.59144065e-06
0.005375,1.68876818e-06
0.005395833333,1.784626079e-06
0.005416666667,1.878960234e-06
0.0054375,1.969149025e-06
0.005458333333,2.050160901e-06
0.005479166667,2.122043043e-06
0.0055,2.183440756e-06
0.005520833333,2.240223239e-06
0.005541666667,2.293416628e-06
0.0055625,2.34597519e-06
0.005583333333,2.396092668e-06
0.005604166667,2.440589924e-06
0.005625,2.478233228e-06
0.005645833333,2.506464625e-06
0.005666666667,2.528431878e-06
0.0056875,2.544941026e-06
0.005708333333,2.557800826e-06
0.005729166667,2.566283001e-06
0.00575,2.565403065e-06
0.005770833333,2.553573268e-06
0.005791666667,2.526072421e-06
0.0058125,2.487458232e-06
0.005833333333,2.439425543e-06
0.005854166667,2.387969971e-06
0.005875,2.333246357e-06
0.005895833333,2.272598977e-06
0.005916666667,2.202990572e-06
0.0059375,2.120871613e-06
0.005958333333,2.030694532e-06
0.005979166667,1.936191666e-06
0.006,1.843242785e-06
0.006020833333,1.751596756e-06
0.006041666667,1.655127676e-06
0.0060625,1.549237368e-06
0.006083333333,1.427408279e-06
0.006104166667,1.295744255e-06
0.006125,1.157226734e-06
0.006145833333,1.019914293e-06
0.006166666667,8.821512552e-07
0.0061875,7.389435268e-07
0.006208333333,5.854358278e-07
0.006229166667,4.184722115e-07
0.00625,2.457813366e-07
0.006270833333,7.389714796e-08
0.006291666667,-8.966706844e-08
0.0063125,-2.458360484e-07
0.006333333333,-4.015362833e-07
0.006354166667,-5.61239176e-07
0.006375,-7.292969144e-07
0.006395833333,-8.977739299e-07
0.006416666667,-1.063280024e-06
0.0064375,-1.218976195e-06
0.006458333333,-1.36982419e-06
0.006479166667,-1.521072477e-06
0.0065,-1.678536933e-06
0.006520833333,-1.843476412e-06
0.006541666667,-2.008219781e-06
0.0065625,-2.168035735e-06
0.006583333333,-2.315793608e-06
0.006604166667,-2.454116157e-06
0.006625,-2.586657956e-06
0.006645833333,-2.715618166e-06
0.006666666667,-2.843502216e-06
0.0066875,-2.961709242e-06
0.006708333333,-3.069774266e-06
0.006729166667,-3.160567758e-06
0.00675,-3.2391697e-06
0.006770833333,-3.308446367e-06
0.006791666667,-3.373176241e-06
0.0068125,-3.43665829e-06
0.006833333333,-3.494641078e-06
0.006854166667,-3.54608369e-06
0.006875,-3.584796332e-06
0.006895833333,-3.611775583e-06
0.006916666667,-3.628379545e-06
0.0069375,-3.6370609e-06
0.006958333333,-3.641801868e-06
0.006979166667,-3.637201416e-06
0.007,-3.622723625e-06
0.007020833333,-3.588041182e-06
0.007041666667,-3.5351718e-06
0.0070625,-3.463339908e-06
0.007083333333,-3.380487669e-06
0.007104166667,-3.292554766e-06
0.007125,-3.198888407e-06
0.007145833333,-3.098952902e-06
0.007166666667,-2.983196055e-06
0.0071875,-2.852583975e-06
0.007208333333,-2.708810825e-06
0.007229166667,-2.55999521e-06
0.00725,-2.41477187e-06
0.007270833333,-2.268835487e-06
0.007291666667,-2.120195404e-06
0.0073125,-1.953469564e-06
0.007333333333,-1.769445817e-06
0.007354166667,-1.567988875e-06
0.007375,-1.360417173e-06
0.007395833333,-1.154229949e-06
0.007416666667,-9.472674947e-07
0.0074375,-7.352799116e-07
0.007458333333,-5.06137269e-07
0.007479166667,-2.617367443e-07
0.0075,-7.337825014e-09
0.007520833333,2.440605442e-07
0.007541666667,4.826858913e-07
0.0075625,7.12627525e-07
0.007583333333,9.376066146e-07
0.007604166667,1.172562861e-06
0.007625,1.41358953e-06
0.007645833333,1.659506665e-06
0.007666666667,1.897019501e-06
0.0076875,2.122336582e-06
0.007708333333,2.339700131e-06
0.007729166667,2.55545956e-06
0.00775,2.781670219e-06
0.007770833333,3.014250296e-06
0.007791666667,3.24928601e-06
0.0078125,3.474557161e-06
0.007833333333,3.683412842e-06
0.007854166667,3.879588803e-06
0.007875,4.063851975e-06
0.007895833333,4.247371635e-06
0.007916666667,4.423039627e-06
0.0079375,4.591149718e-06
0.007958333333,4.73998216e-06
0.007979166667,4.868230008e-06
0.008,4.977891422e-06
0.008020833333,5.073105513e-06
0.008041666667,5.164019058e-06
0.0080625,5.248812613e-06
0.008083333333,5.329642136e-06
0.008104166667,5.39817529e-06
0.008125,5.450683148e-06
0.008145833333,5.487209364e-06
0.008166666667,5.506269645e-06
0.0081875,5.518331818e-06
0.008208333333,5.518454145e-06
0.008229166667,5.512056305e-06
0.00825,5.486282134e-06
0.008270833333,5.438085282e-06
0.008291666667,5.362669981e-06
0.0083125,5.26166059e-06
0.008333333333,5.147161119e-06
0.008354166667,5.02143439e-06
0.008375,4.892190191e-06
0.008395833333,4.750257631e-06
0.008416666667,4.590315712e-06
0.0084375,4.409865141e-06
0.008458333333,4.209662166e-06
0.008479166667,4.006385097e-06
0.0085,3.800792683e-06
0.008520833333,3.601007847e-06
0.008541666667,3.39058488e-06
0.0085625,3.16235969e-06
0.008583333333,2.907886255e-06
0.008604166667,2.631403504e-06
0.008625,2.347782129e-06
0.008645833333,2.061855866e-06
0.008666666667,1.779192871e-06
0.0086875,1.485293751e-06
0.008708333333,1.173049554e-06
0.008729166667,8.395402915e-07
0.00875,4.922307539e-07
0.008770833333,1.520411388e-07
0.008791666667,-1.778021925e-07
0.0088125,-4.893551022e-07
0.008833333333,-8.022174711e-07
0.008854166667,-1.120723482e-06
0.008875,-1.451845833e-06
0.008895833333,-1.786455186e-06
0.008916666667,-2.109874686e-06
0.0089375,-2.420541477e-06
0.008958333333,-2.716396693e-06
0.008979166667,-3.015514494e-06
0.009,-3.323089913e-06
0.009020833333,-3.64139396e-06
0.009041666667,-3.962041319e-06
0.0090625,-4.267078566e-06
0.009083333333,-4.55617328e-06
0.009104166667,-4.821487892e-06
0.009125,-5.079675248e-06
0.009145833333,-5.328865882e-06
0.009166666667,-5.573821909e-06
0.0091875,-5.804690772e-06
0.009208333333,-6.011144706e-06
0.009229166667,-6.192521596e-06
0.00925,-6.345891961e-06
0.009270833333,-6.48586456e-06
0.009291666667,-6.615157417e-06
0.0093125,-6.740335721e-06
0.009333333333,-6.857977496e-06
0.009354166667,-6.958026006e-06
0.009375,-7.040661785e-06
0.009395833333,-7.095804904e-06
0.009416666667,-7.136837667e-06
0.0094375,-7.160174391e-06
0.009458333333,-7.176277904e-06
0.009479166667,-7.177518455e-06
0.0095,-7.156085303e-06
0.009520833333,-7.105302302e-06
0.009541666667,-7.015726624e-06
0.0095625,-6.898953416e-06
0.009583333333,-6.758926247e-06
0.009604166667,-6.610411219e-06
0.009625,-6.453569767e-06
0.009645833333,-6.279987247e-06
0.009666666667,-6.085390396e-06
0.0096875,-5.857473298e-06
0.009708333333,-5.612840141e-06
0.009729166667,-5.354908808e-06
0.00975,-5.103455806e-06
0.009770833333,-4.851770427e-06
0.009791666667,-4.59001194e-06
0.0098125,-4.303352398e-06
0.009833333333,-3.980113888e-06
0.009854166667,-3.63359527e-06
0.009875,-3.272039066e-06
0.009895833333,-2.914332754e-06
0.009916666667,-2.555864285e-06
0.0099375,-2.184471214e-06
0.009958333333,-1.79007202e-06
0.009979166667,-1.36267272e-06
0.01,-8.947518495e-07
0.01002083333,-4.013768944e-07
0.01004166667,2.932964094e-08
0.0100625,4.022650444e-07
0.01008333333,7.545436915e-07
0.01010416667,1.123471975e-06
0.010125,1.523941364e-06
0.01014583333,1.959136853e-06
0.01016666667,2.385291509e-06
0.0101875,2.786084679e-06
0.01020833333,3.160393817e-06
0.01022916667,3.53491987e-06
0.01025,3.922861197e-06
0.01027083333,4.341878139e-06
0.01029166667,4.775615707e-06
0.0103125,5.208504717e-06
0.01033333333,5.609838809e-06
0.01035416667,5.98092538e-06
0.010375,6.310061963e-06
0.01039583333,6.618030056e-06
0.01041666667,6.893809768e-06
0.0104375,7.144273241e-06
0.01045833333,7.38783956e-06
0.01047916667,7.628962067e-06
0.0105,7.869047295e-06
0.01052083333,8.110068848e-06
0.01054166667,8.331358913e-06
0.0105625,8.526185411e-06
0.01058333333,8.683630767e-06
0.01060416667,8.80722655e-06
0.010625,8.905217328e-06
0.01064583333,9.003134437e-06
0.01066666667,9.07787944e-06
0.0106875,9.14496286e-06
0.01070833333,9.173641956e-06
0.01072916667,9.181974747e-06
0.01075,9.155889529e-06
0.01077083333,9.099981071e-06
0.01079166667,9.026040061e-06
0.0108125,8.925690963e-06
0.01083333333,8.812282431e-06
0.01085416667,8.688998605e-06
0.010875,8.540593626e-06
0.01089583333,8.368080671e-06
0.01091666667,8.122833606e-06
0.0109375,7.842309969e-06
0.01095833333,7.50756908e-06
0.01097916667,7.197550076e-06
0.011,6.901792403e-06
0.01102083333,6.637896149e-06
0.01104166667,6.391310308e-06
0.0110625,6.09142262e-06
0.01108333333,5.735430932e-06
0.01110416667,5.324326139e-06
0.011125,4.879123935e-06
0.01114583333,4.447250831e-06
0.01116666667,4.032726793e-06
0.0111875,3.640572459e-06
0.01120833333,3.196917532e-06
0.01122916667,2.714660695e-06
0.01125,2.176424914e-06
0.01127083333,1.62981064e-06
0.01129166667,1.097833319e-06
0.0113125,6.213976462e-07
0.01133333333,1.736896849e-07
0.01135416667,-2.615454662e-07
0.011375,-7.158159292e-07
0.01139583333,-1.190591206e-06
0.01141666667,-1.685717621e-06
0.0114375,-2.182593335e-06
0.01145833333,-2.685336995e-06
0.01147916667,-3.158291747e-06
0.0115,-3.644608341e-06
0.01152083333,-4.103380434e-06
0.01154166667,-4.563744369e-06
0.0115625,-5.003992555e-06
0.01158333333,-5.43345277e-06
0.01160416667,-5.867353593e-06
0.011625,-6.283347375e-06
0.01164583333,-6.688303984e-06
0.01166666667,-7.083585388e-06
0.0116875,-7.434403415e-06
0.01170833333,-7.762037967e-06
0.01172916667,-8.040075954e-06
0.01175,-8.298788089e-06
0.01177083333,-8.538694601e-06
0.01179166667,-8.783491467e-06
0.0118125,-9.002581464e-06
0.01183333333,-9.220347238e-06
0.01185416667,-9.397074791e-06
0.011875,-9.536136531e-06
0.01189583333,-9.666464393e-06
0.01191666667,-9.7574557e-06
0.0119375,-9.838863662e-06
0.01195833333,-9.921460332e-06
0.01197916667,-9.968020095e-06
0.012,-1.001381952e-05
0.01202083333,-9.970029168e-06
0.01204166667,-9.893306924e-06
0.0120625,-9.745437637e-06
0.01208333333,-9.59195404e-06
0.01210416667,-9.398250768e-06
0.012125,-9.195857274e-06
0.01214583333,-9.015838259e-06
0.01216666667,-8.82180575e-06
0.0121875,-8.579628229e-06
0.01220833333,-8.307743883e-06
0.01222916667,-7.990983249e-06
0.01225,-7.688729056e-06
0.01227083333,-7.363074928e-06
0.01229166667,-7.028760592e-06
0.0123125,-6.663311524e-06
0.01233333333,-6.305396255e-06
0.01235416667,-5.858505119e-06
0.012375,-5.392897492e-06
0.01239583333,-4.908895335e-06
0.01241666667,-4.41936254e-06
0.0124375,-3.906865004e-06
0.01245833333,-3.403211849e-06
0.01247916667,-2.888822564e-06
0.0125,-2.368669584e-06
0.01252083333,-1.852650257e-06
0.01254166667,-1.343292183e-06
0.0125625,-7.966486351e-07
0.01258333333,-2.688872485e-07
0.01260416667,2.885394395e-07
0.012625,8.247878895e-07
0.01264583333,1.346769409e-06
0.01266666667,1.833152169e-06
0.0126875,2.336401394e-06
0.01270833333,2.852837724e-06
0.01272916667,3.404763902e-06
0.01275,3.971457772e-06
0.01277083333,4.580247605e-06
0.01279166667,5.09927213e-06
0.0128125,5.587854048e-06
0.01283333333,6.018812655e-06
0.01285416667,6.427375411e-06
0.012875,6.849476449e-06
0.01289583333,7.299072422e-06
0.01291666667,7.711463695e-06
0.0129375,8.09202993e-06
0.01295833333,8.429498848e-06
0.01297916667,8.725849511e-06
0.013,8.994657946e-06
0.01302083333,9.318932825e-06
0.01304166667,9.623869119e-06
0.0130625,9.944008525e-06
0.01308333333,1.018206967e-05
0.01310416667,1.033474746e-05
0.013125,1.044623423e-05
0.01314583333,1.053413689e-05
0.01316666667,1.060059913e-05
0.0131875,1.070127109e-05
0.01320833333,1.076805347e-05
0.01322916667,1.078909099e-05
0.01325,1.079584399e-05
0.01327083333,1.071000224e-05
0.01329166667,1.058938051e-05
0.0133125,1.055972007e-05
0.01333333333,1.04765204e-05
0.01335416667,1.037050151e-05
0.013375,1.019154115e-05
0.01339583333,9.921918718e-06
0.01341666667,9.581677659e-06
0.0134375,9.193143342e-06
0.01345833333,8.774819435e-06
0.01347916667,8.463635822e-06
0.0135,8.155394426e-06
0.01352083333,7.884919796e-06
0.01354166667,7.572424693e-06
0.0135625,7.239806109e-06
0.01358333333,6.805252269e-06
0.01360416667,6.321940418e-06
0.013625,5.782796052e-06
0.01364583333,5.269791018e-06
0.01366666667,4.769486623e-06
0.0136875,4.297681244e-06
0.01370833333,3.788326467e-06
0.01372916667,3.257656317e-06
0.01375,2.609666808e-06
0.01377083333,1.891762963e-06
0.01379166667,1.206821366e-06
0.0138125,6.10985353e-07
0.01383333333,1.492077644e-07
0.01385416667,-2.32561618e-07
0.013875,-7.031999303e-07
0.01389583333,-1.19678873e-06
0.01391666667,-1.806113232e-06
0.0139375,-2.494098908e-06
0.01395833333,-3.159478865e-06
0.01397916667,-3.790974688e-06
0.014,-4.355134024e-06
0.01402083333,-4.797616839e-06
0.01404166667,-5.240092833e-06
0.0140625,-5.664290256e-06
0.01408333333,-6.112250048e-06
0.01410416667,-6.573627616e-06
0.014125,-7.138888577e-06
0.01414583333,-7.707662917e-06
0.01416666667,-8.23145092e-06
0.0141875,-8.65729271e-06
0.01420833333,-8.8935858e-06
0.01422916667,-9.028437489e-06
0.01425,-9.219001186e-06
0.01427083333,-9.451731785e-06
0.01429166667,-9.862342267e-06
0.0143125,-1.03342627e-05
0.01433333333,-1.065951983e-05
0.01435416667,-1.071911083e-05
0.014375,-1.055470875e-05
0.01439583333,-1.036527283e-05
0.01441666667,-1.038525897e-05
0.0144375,-1.054556196e-05
0.01445833333,-1.093146147e-05
0.01447916667,-1.123885249e-05
0.0145,-1.13716178e-05
0.01452083333,-1.116209387e-05
0.01454166667,-1.073515887e-05
0.0145625,-1.024948506e-05
0.01458333333,-9.870110262e-06
0.01460416667,-9.646430044e-06
0.014625,-9.611639143e-06
0.01464583333,-9.536098332e-06
0.01466666667,-9.440570466e-06
0.0146875,-9.128441889e-06
0.01470833333,-8.676855941e-06
0.01472916667,-8.136751603e-06
0.01475,-7.622963494e-06
0.01477083333,-7.168235243e-06
0.01479166667,-6.805983958e-06
0.0148125,-6.558861514e-06
0.01483333333,-6.241675237e-06
0.01485416667,-5.678928574e-06
0.014875,-4.839209396e-06
0.01489583333,-3.97280246e-06
0.01491666667,-3.140635272e-06
0.0149375,-2.525930995e-06
0.01495833333,-2.275442057e-06
0.01497916667,-2.141470986e-06
0.015,-2.035370926e-06
0.01502083333,-1.566664423e-06
0.01504166667,-7.800951494e-07
0.0150625,2.34536202e-07
0.01508333333,1.323744186e-06
0.01510416667,2.31501167e-06
0.015125,2.980597628e-06
0.01514583333,3.429413709e-06
0.01516666667,3.754512363e-06
0.0151875,4.169485692e-06
0.01520833333,4.660156264e-06
0.01522916667,5.270522706e-06
0.01525,5.827789209e-06
0.01527083333,6.431665952e-06
0.01529166667,6.922286957e-06
0.0153125,7.317573818e-06
0.01533333333,7.705509233e-06
0.01535416667,8.182360034e-06
0.015375,8.598348359e-06
0.01539583333,9.321715879e-06
0.01541666667,1.008070103e-05
0.0154375,1.077317393e-05
0.01545833333,1.126176812e-05
0.01547916667,1.144164798e-05
0.0155,1.136967694e-05
0.01552083333,1.113188137e-05
0.01554166667,1.106555828e-05
0.0155625,1.118820637e-05
0.01558333333,1.153664562e-05
0.01560416667,1.201232772e-05
0.015625,1.226652603e-05
0.01564583333,1.245618114e-05
0.01566666667,1.241253631e-05
0.0156875,1.229442478e-05
0.01570833333,1.223707841e-05
0.01572916667,1.230015823e-05
0.01575,1.228165729e-05
0.01577083333,1.216663986e-05
0.01579166667,1.187113685e-05
0.0158125,1.140282984e-05
0.01583333333,1.101292946e-05
0.01585416667,1.065161268e-05
0.015875,1.043593875e-05
0.01589583333,1.02826998e-05
0.01591666667,1.000290922e-05
0.0159375,9.725659766e-06
0.01595833333,9.161732123e-06
0.01597916667,8.670833267e-06
0.016,8.079632607e-06
0.01602083333,7.562694918e-06
0.01604166667,7.041282515e-06
0.0160625,6.648884209e-06
0.01608333333,6.136616776e-06
0.01610416667,5.430075817e-06
0.016125,4.70763689e-06
0.01614583333,3.923506938e-06
0.01616666667,3.294049293e-06
0.0161875,2.669544301e-06
0.01620833333,2.160924168e-06
0.01622916667,1.753897891e-06
0.01625,1.145950819e-06
0.01627083333,4.248365144e-07
0.01629166667,-5.7974421e-07
0.0163125,-1.531637736e-06
0.01633333333,-2.40155714e-06
0.01635416667,-2.99321664e-06
0.016375,-3.445181164e-06
0.01639583333,-3.893955181e-06
0.01641666667,-4.333921879e-06
0.0164375,-4.938532584e-06
0.01645833333,-5.655038422e-06
0.01647916667,-6.64017989e-06
0.0165,-7.408784768e-06
0.01652083333,-7.974611435e-06
0.01654166667,-8.419274309e-06
0.0165625,-8.698320926e-06
0.01658333333,-9.188279364e-06
0.01660416667,-9.50915819e-06
0.016625,-1.02130216e-05
0.01664583333,-1.080842958e-05
0.01666666667,-1.145537863e-05
0.0166875,-1.193848948e-05
0.01670833333,-1.216063356e-05
0.01672916667,-1.237489232e-05
0.01675,-1.237747983e-05
0.01677083333,-1.239046469e-05
0.01679166667,-1.26934101e-05
0.0168125,-1.306310423e-05
0.01683333333,-1.335618163e-05
0.01685416667,-1.354885353e-05
0.016875,-1.345108922e-05
0.01689583333,-1.308144056e-05
0.01691666667,-1.282527501e-05
0.0169375,-1.26436853e-05
0.01695833333,-1.287010218e-05
0.01697916667,-1.321149648e-05
0.017,-1.36238732e-05
0.01702083333,-1.36178287e-05
0.01704166667,-1.322238404e-05
0.0170625,-1.26137902e-05
0.01708333333,-1.175499983e-05
0.01710416667,-1.10574947e-05
0.017125,-1.049627463e-05
0.01714583333,-1.011627592e-05
0.01716666667,-9.842560758e-06
0.0171875,-9.387385944e-06
0.01720833333,-8.943970897e-06
0.01722916667,-8.335571692e-06
0.01725,-7.796600585e-06
0.01727083333,-7.256294339e-06
0.01729166667,-6.840247352e-06
0.0173125,-6.496041806e-06
0.01733333333,-6.116239547e-06
0.01735416667,-5.548859463e-06
0.017375,-4.676499429e-06
0.01739583333,-3.574248012e-06
0.01741666667,-2.213700554e-06
0.0174375,-8.503989193e-07
0.01745833333,1.225688493e-07
0.01747916667,8.022489624e-07
0.0175,1.188594524e-06
0.01752083333,1.188853275e-06
0.01754166667,1.480908168e-06
0.0175625,2.225483513e-06
0.01758333333,3.188520395e-06
0.01760416667,4.315403658e-06
0.017625,5.542689905e-06
0.01764583333,6.287444648e-06
0.01766666667,6.846760243e-06
0.0176875,7.3621718e-06
0.01770833333,8.031633115e-06
0.01772916667,8.857132343e-06
0.01775,9.808539289e-06
0.01777083333,1.070350845e-05
0.01779166667,1.109954064e-05
0.0178125,1.151272772e-05
0.01783333333,1.167272603e-05
0.01785416667,1.21550911e-05
0.017875,1.257684471e-05
0.01789583333,1.332047032e-05
0.01791666667,1.39987942e-05
0.0179375,1.462186265e-05
0.01795833333,1.523035735e-05
0.01797916667,1.567110485e-05
0.018,1.600301403e-05
0.01802083333,1.605286343e-05
0.01804166667,1.583386256e-05
0.0180625,1.588377563e-05
0.01808333333,1.574782982e-05
0.01810416667,1.585034261e-05
0.018125,1.589406565e-05
0.01814583333,1.61624539e-05
0.01816666667,1.647762474e-05
0.0181875,1.654389962e-05
0.01820833333,1.645044904e-05
0.01822916667,1.626166522e-05
0.01825,1.606646947e-05
0.01827083333,1.562714897e-05
0.01829166667,1.540646736e-05
0.0183125,1.491274816e-05
0.01833333333,1.451503431e-05
0.01835416667,1.42533172e-05
0.018375,1.364861146e-05
0.01839583333,1.326297115e-05
0.01841666667,1.271964629e-05
0.0184375,1.20436689e-05
0.01845833333,1.130504916e-05
0.01847916667,1.060683007e-05
0.0185,1.022612378e-05
0.01852083333,9.717095963e-06
0.01854166667,9.203079571e-06
0.0185625,8.2508177e-06
0.01858333333,7.461279893e-06
0.01860416667,6.451455647e-06
0.018625,5.396963843e-06
0.01864583333,4.74023409e-06
0.01866666667,4.095362783e-06
0.0186875,3.654367902e-06
0.01870833333,2.861122539e-06
0.01872916667,2.110534524e-06
0.01875,9.567279449e-07
0.01877083333,-1.293369536e-07
0.01879166667,-1.162050239e-06
0.0188125,-2.259240546e-06
0.01883333333,-2.856113497e-06
0.01885416667,-3.64948778e-06
0.018875,-4.334888217e-06
0.01889583333,-5.080224128e-06
0.01891666667,-5.970289294e-06
0.0189375,-6.704407951e-06
0.01895833333,-7.597428066e-06
0.01897916667,-8.410888768e-06
0.019,-9.211626093e-06
0.01902083333,-9.750151548e-06
0.01904166667,-1.052489461e-05
0.0190625,-1.119373883e-05
0.01908333333,-1.183737277e-05
0.01910416667,-1.253709434e-05
0.019125,-1.326416987e-05
0.01914583333,-1.392251033e-05
0.01916666667,-1.425611117e-05
0.0191875,-1.463508488e-05
0.01920833333,-1.489361784e-05
0.01922916667,-1.483994401e-05
0.01925,-1.541141501e-05
0.01927083333,-1.596776565e-05
0.01929166667,-1.66811551e-05
0.0193125,-1.739848267e-05
0.01933333333,-1.754560253e-05
0.01935416667,-1.726467235e-05
0.019375,-1.685249299e-05
0.01939583333,-1.638649337e-05
0.01941666667,-1.629081635e-05
0.0194375,-1.665401578e-05
0.01945833333,-1.720761429e-05
0.01947916667,-1.757693826e-05
0.0195,-1.745544796e-05
0.01952083333,-1.678709305e-05
0.01954166667,-1.607982267e-05
0.0195625,-1.528729081e-05
0.01958333333,-1.488276666e-05
0.01960416667,-1.462786167e-05
0.019625,-1.454115591e-05
0.01964583333,-1.426869585e-05
0.01966666667,-1.363785577e-05
0.0196875,-1.31410261e-05
0.01970833333,-1.224987955e-05
0.01972916667,-1.146500199e-05
0.01975,-1.091635204e-05
0.01977083333,-1.028136376e-05
0.01979166667,-1.033343415e-05
0.0198125,-1.006384718e-05
0.01983333333,-9.53383551e-06
0.01985416667,-8.628103387e-06
0.019875,-6.971670246e-06
0.01989583333,-5.014349426e-06
0.01991666667,-3.197878414e-06
0.0199375,-1.807003173e-06
0.01995833333,-1.166472885e-06
0.01997916667,-1.659221311e-06
0.02,-4.756358976e-06
0.02002083333,-4.722520771e-06
0.02004166667,-3.994912731e-06
0.0200625,-2.704467079e-06
0.02008333333,-1.217574663e-06
0.02010416667,-1.406308456e-07
0.020125,4.896921837e-07
0.02014583333,1.088284534e-06
0.02016666667,1.531721182e-06
0.0201875,2.718103133e-06
0.02020833333,4.402025752e-06
0.02022916667,5.8846299e-06
0.02025,7.130687663e-06
0.02027083333,7.434329746e-06
0.02029166667,6.933079476e-06
0.0203125,6.311965535e-06
0.02033333333,5.740543202e-06
0.02035416667,5.94497169e-06
0.020375,6.672969448e-06
0.02039583333,7.892298527e-06
0.02041666667,8.651171811e-06
0.0204375,9.455705367e-06
0.02045833333,9.898303688e-06
0.02047916667,9.840559869e-06
0.0205,9.719151421e-06
0.02052083333,9.544726709e-06
0.02054166667,9.684833458e-06
0.0205625,9.751031939e-06
0.02058333333,9.904594663e-06
0.02060416667,9.547814443e-06
0.020625,9.222817425e-06
0.02064583333,8.647152754e-06
0.02066666667,7.791276403e-06
0.0206875,7.783276487e-06
0.02070833333,7.86416058e-06
0.02072916667,8.556923603e-06
0.02075,9.254571523e-06
0.02077083333,9.292257346e-06
0.02079166667,8.905544746e-06
0.0208125,7.959624782e-06
0.02083333333,7.053381523e-06
0.02085416667,6.275909982e-06
0.020875,5.737490028e-06
0.02089583333,5.419508852e-06
0.02091666667,4.989205081e-06
0.0209375,4.637920028e-06
0.02095833333,4.361667379e-06
0.02097916667,3.708950317e-06
0.021,2.765550562e-06
0.02102083333,1.897788025e-06
0.02104166667,8.947354218e-07
0.0210625,5.290994523e-07
0.02108333333,-8.839197108e-08
0.02110416667,-7.351991371e-07
0.021125,-1.356608664e-06
0.02114583333,-2.564712304e-06
0.02116666667,-3.924070825e-06
0.0211875,-5.862388207e-06
0.02120833333,-7.197373179e-06
0.02122916667,-7.967330021e-06
0.02125,-8.302935385e-06
0.02127083333,-8.19077286e-06
0.02129166667,-8.418528523e-06
0.0213125,-9.080889868e-06
0.02133333333,-9.896227311e-06
0.02135416667,-1.073911062e-05
0.021375,-1.163419529e-05
0.02139583333,-1.22904512e-05
0.02141666667,-1.3199352e-05
0.0214375,-1.38225987e-05
0.02145833333,-1.432525823e-05
0.02147916667,-1.502226223e-05
0.0215,-1.530633926e-05
0.02152083333,-1.573594454e-05
0.02154166667,-1.614300527e-05
0.0215625,-1.658746987e-05
0.02158333333,-1.719213651e-05
0.02160416667,-1.764944682e-05
0.021625,-1.816159966e-05
0.02164583333,-1.835994408e-05
0.02166666667,-1.922862066e-05
0.0216875,-1.98680973e-05
0.02170833333,-2.096068602e-05
0.02172916667,-2.182931348e-05
0.02175,-2.279461842e-05
0.02177083333,-2.3655326e-05
0.02179166667,-2.37396689e-05
0.0218125,-2.351357762e-05
0.02183333333,-2.318926454e-05
0.02185416667,-2.24002597e-05
0.021875,-2.209178456e-05
0.02189583333,-2.175858754e-05
0.02191666667,-2.209633021e-05
0.0219375,-2.365320688e-05
0.02195833333,-2.505250268e-05
0.02197916667,-2.660707651e-05
0.022,-2.822742681e-05
0.02202083333,-2.851630779e-05
0.02204166667,-2.833779217e-05
0.0220625,-2.805628901e-05
0.02208333333,-2.731369023e-05
0.02210416667,-2.7054979e-05
0.022125,-2.706886335e-05
0.02214583333,-2.62800022e-05
0.02216666667,-2.633482654e-05
0.0221875,-2.577376108e-05
0.02220833333,-2.523941657e-05
0.02222916667,-2.444889287e-05
0.02225,-2.352804586e-05
0.02227083333,-2.358348502e-05
0.02229166667,-2.452953049e-05
0.0223125,-2.603636312e-05
0.02233333333,-2.682500781e-05
0.02235416667,-2.657241748e-05
0.022375,-2.49186196e-05
0.02239583333,-2.197516733e-05
0.02241666667,-1.991280078e-05
0.0224375,-1.949624129e-05
0.02245833333,-2.119831879e-05
0.02247916667,-2.422051693e-05
0.0225,-2.688891436e-05
0.02252083333,-2.761963879e-05
0.02254166667,-2.683197272e-05
0.0225625,-2.474736175e-05
0.02258333333,-2.270334699e-05
0.02260416667,-2.157167546e-05
0.022625,-2.15564778e-05
0.02264583333,-2.188610233e-05
0.02266666667,-2.191478598e-05
0.0226875,-2.117449731e-05
0.02270833333,-2.072138159e-05
0.02272916667,-1.994285412e-05
0.02275,-1.962368151e-05
0.02277083333,-1.965401862e-05
0.02279166667,-2.014904021e-05
0.0228125,-2.13035637e-05
0.02283333333,-2.218802183e-05
0.02285416667,-2.276616578e-05
0.022875,-2.278798274e-05
0.02289583333,-2.12238192e-05
0.02291666667,-1.953325409e-05
0.0229375,-1.808869274e-05
0.02295833333,-1.797038203e-05
0.02297916667,-1.937393972e-05
0.023,-2.222583498e-05
0.02302083333,-2.49263976e-05
0.02304166667,-2.666908404e-05
0.0230625,-2.706879786e-05
0.02308333333,-2.670839422e-05
0.02310416667,-2.684413448e-05
0.023125,-2.835183295e-05
0.02314583333,-3.008878411e-05
0.02316666667,-3.197373007e-05
0.0231875,-3.37798192e-05
0.02320833333,-3.308683154e-05
0.02322916667,-3.224710963e-05
0.02325,-3.16564001e-05
0.02327083333,-3.165791713e-05
0.02329166667,-3.306472718e-05
0.0233125,-3.492296673e-05
0.02333333333,-3.673564424e-05
0.02335416667,-3.761359403e-05
0.023375,-3.818575351e-05
0.02339583333,-3.788982576e-05
0.02341666667,-3.8368682e-05
0.0234375,-3.928243314e-05
0.02345833333,-4.007023017e-05
0.02347916667,-4.1970452e-05
0.0235,-4.455226735e-05
0.02352083333,-4.803690535e-05
0.02354166667,-5.205029447e-05
0.0235625,-5.484654685e-05
0.02358333333,-5.66273302e-05
0.02360416667,-5.699365283e-05
0.023625,-5.641059033e-05
0.02364583333,-5.631643216e-05
0.02366666667,-5.771654833e-05
0.0236875,-5.975923705e-05
0.02370833333,-6.359900726e-05
0.02372916667,-6.654430035e-05
0.02375,-6.888800272e-05
0.02377083333,-6.995923468e-05
0.02379166667,-7.127060962e-05
0.0238125,-7.208377792e-05
0.02383333333,-7.562481187e-05
0.02385416667,-7.899872435e-05
0.023875,-8.208236977e-05
0.02389583333,-8.408205758e-05
0.02391666667,-8.437791257e-05
0.0239375,-8.397537022e-05
0.02395833333,-8.3439234e-05
0.02397916667,-8.353625162e-05
0.024,-8.505535516e-05
0.02402083333,-8.75903861e-05
0.02404166667,-9.032307571e-05
0.0240625,-9.302271792e-05
0.02408333333,-9.539617895e-05
0.02410416667,-9.629514534e-05
0.024125,-9.711557504e-05
0.02414583333,-9.806753951e-05
0.02416666667,-0.0001000977354
0.0241875,-0.0001026567697
0.02420833333,-0.0001063166928
0.02422916667,-0.0001100295412
0.02425,-0.0001131483441
0.02427083333,-0.0001148926967
0.02429166667,-0.0001156746803
0.0243125,-0.0001161956243
0.02433333333,-0.0001174307545
0.02435416667,-0.0001193040953
0.024375,-0.0001216801902
0.02439583333,-0.0001234364463
0.02441666667,-0.0001246766187
0.0244375,-0.0001251944777
0.02445833333,-0.0001258324482
0.02447916667,-0.0001270837383
0.0245,-0.0001294479007
0.02452083333,-0.0001319248549
0.02454166667,-0.0001334572735
0.0245625,-0.0001347271318
0.02458333333,-0.0001352208201
0.02460416667,-0.0001348061196
0.024625,-0.0001341631578
0.02464583333,-0.0001336079586
0.02466666667,-0.0001336799178
0.0246875,-0.0001343232143
0.02470833333,-0.0001356936846
0.02472916667,-0.0001378808229
0.02475,-0.0001406582887
0.02477083333,-0.0001424485235
0.02479166667,-0.0001456245518
0.0248125,-0.0001493003801
0.02483333333,-0.0001545324776
0.02485416667,-0.0001602956618
0.024875,-0.0001667030156
0.02489583333,-0.0001702704321
0.02491666667,-0.0001713001111
0.0249375,-0.0001702735171
0.02495833333,-0.0001676122192
0.02497916667,-0.0001652929204
0.025,-0.0001646774472
0.02502083333,-0.0001637700479
0.02504166667,-0.0001637639944
0.0250625,-0.000163681616
0.02508333333,-0.0001631291088
0.02510416667,-0.0001623079734
0.025125,-0.0001626953308
0.02514583333,-0.0001616229711
0.02516666667,-0.0001616060617
0.0251875,-0.0001620989206
0.02520833333,-0.0001619755785
0.02522916667,-0.0001636903471
0.02525,-0.0001650027843
0.02527083333,-0.0001654540392
0.02529166667,-0.0001650679769
0.0253125,-0.0001660575799
0.02533333333,-0.0001674096275
0.02535416667,-0.000169773979
0.025375,-0.0001735659025
0.02539583333,-0.0001774551783
0.02541666667,-0.0001798359008
0.0254375,-0.0001812624105
0.02545833333,-0.0001806844957
0.02547916667,-0.0001803091291
0.0255,-0.000181008887
0.02552083333,-0.0001826352964
0.02554166667,-0.0001840587502
0.0255625,-0.0001858205505
0.02558333333,-0.0001849171094
0.02560416667,-0.0001831797708
0.025625,-0.0001827727974
0.02564583333,-0.0001819059689
0.02566666667,-0.000182560223
0.0256875,-0.0001826117368
0.02570833333,-0.0001833454298
0.02572916667,-0.0001838426542
0.02575,-0.0001844193612
0.02577083333,-0.0001847237436
0.02579166667,-0.000186196834
0.0258125,-0.0001868366817
0.02583333333,-0.0001881486969
0.02585416667,-0.0001870511624
0.025875,-0.0001864285005
0.02589583333,-0.0001848118118
0.02591666667,-0.0001859685144
0.0259375,-0.0001884419762
0.02595833333,-0.0001904156234
0.02597916667,-0.0001931298902
0.026,-0.0001981929236
0.02602083333,-0.0002015648497
0.02604166667,-0.0002053345379
0.0260625,-0.0002110594651
0.02608333333,-0.0002158258139
0.02610416667,-0.0002194654808
0.026125,-0.0002210699895
0.02614583333,-0.0002218662703
0.02616666667,-0.0002217470756
0.0261875,-0.0002225246571
0.02620833333,-0.0002251661936
0.02622916667,-0.0002294816222
0.02625,-0.0002329127747
0.02627083333,-0.0002361140359
0.02629166667,-0.0002369871509
0.0263125,-0.0002389229339
0.02633333333,-0.0002401841193
0.02635416667,-0.0002439234377
0.026375,-0.0002482486307
0.02639583333,-0.0002524367592
0.02641666667,-0.0002554125967
0.0264375,-0.000258562417
0.02645833333,-0.0002595243568
0.02647916667,-0.0002622444299
0.0265,-0.0002644019842
0.02652083333,-0.0002684357169
0.02654166667,-0.0002727685496
0.0265625,-0.0002769099956
0.02658333333,-0.0002804154065
0.02660416667,-0.0002813331957
0.026625,-0.0002817636123
0.02664583333,-0.0002811997547
0.02666666667,-0.0002809281577
0.0266875,-0.0002821804374
0.02670833333,-0.0002853491169
0.02672916667,-0.0002903637069
0.02675,-0.000295814476
0.02677083333,-0.0002995810355
0.02679166667,-0.000300495507
0.0268125,-0.0002988541091
0.02683333333,-0.0002973121009
0.02685416667,-0.0002961175342
0.026875,-0.0002976538963
0.02689583333,-0.0002986470645
0.02691666667,-0.0003009453358
0.0269375,-0.0003017102135
0.02695833333,-0.0003012647794
0.02697916667,-0.0003032137756
0.027,-0.0003093901905
0.02702083333,-0.0003148644755
0.02704166667,-0.0003185339447
0.0270625,-0.0003218676429
0.02708333333,-0.0003200931533
0.02710416667,-0.000318256265
0.027125,-0.0003163146903
0.02714583333,-0.0003155214654
0.02716666667,-0.0003175417951
0.0271875,-0.0003193455341
0.02720833333,-0.0003220778599
0.02722916667,-0.0003243876563
0.02725,-0.0003246987762
0.02727083333,-0.0003247596032
0.02729166667,-0.0003265975101
0.0273125,-0.0003314191126
0.02733333333,-0.0003374987864
0.02735416667,-0.0003456529812
0.027375,-0.0003506916401
0.02739583333,-0.0003534227435
0.02741666667,-0.0003522336774
0.0274375,-0.0003512102412
0.02745833333,-0.0003512552939
0.02747916667,-0.0003571114503
0.0275,-0.0003616665781
0.02752083333,-0.0003665486875
0.02754166667,-0.0003657740308
0.0275625,-0.0003618545888
0.02758333333,-0.0003565214574
0.02760416667,-0.0003551432164
0.027625,-0.0003581846249
0.02764583333,-0.0003616708273
0.02766666667,-0.0003653041495
0.0276875,-0.0003653172462
0.02770833333,-0.0003633388551
0.02772916667,-0.0003623641387
0.02775,-0.0003625489771
0.02777083333,-0.0003641900839
0.02779166667,-0.0003669952857
0.0278125,-0.0003691062739
0.02783333333,-0.0003672626335
0.02785416667,-0.000365150685
0.027875,-0.0003684176772
0.02789583333,-0.0003747635346
0.02791666667,-0.0003863175225
0.0279375,-0.0003967040975
0.02795833333,-0.0004033790028
0.02797916667,-0.000408307591
0.028,-0.0004127645807
0.02802083333,-0.0004100431106
0.02804166667,-0.0004087345151
0.0280625,-0.0004058624327
0.02808333333,-0.0004018173786
0.02810416667,-0.0004005682422
0.028125,-0.0003996132873
0.02814583333,-0.0004005217052
0.02816666667,-0.0004028893891
0.0281875,-0.0004051894066
0.02820833333,-0.0004096899647
0.02822916667,-0.0004171985784
0.02825,-0.0004287032061
0.02827083333,-0.0004358238657
0.02829166667,-0.0004396788427
0.0283125,-0.0004335549602
0.02833333333,-0.000418392272
0.02835416667,-0.0004033181758
0.028375,-0.00038812196
0.02839583333,-0.0003832513466
0.02841666667,-0.0003838853154
0.0284375,-0.0003930862586
0.02845833333,-0.0004037344479
0.02847916667,-0.0004120544181
0.0285,-0.0004168233427
0.02852083333,-0.000422988116
0.02854166667,-0.0004376194556
0.0285625,-0.000456343143
0.02858333333,-0.0004752382811
0.02860416667,-0.0004908827832
0.028625,-0.0004957699566
0.02864583333,-0.0004914863966
0.02866666667,-0.0004868292308
0.0286875,-0.0004914918682
0.02870833333,-0.0005090088234
0.02872916667,-0.0005407190183
0.02875,-0.0005761008942
0.02877083333,-0.0005934063811
0.02879166667,-0.0006047429051
0.0288125,-0.0006035421393
0.02883333333,-0.0006055507693
0.02885416667,-0.0006142607308
0.028875,-0.0006317638326
0.02889583333,-0.0006492719403
0.02891666667,-0.0006628007977
0.0289375,-0.0006682688836
0.02895833333,-0.0006599369808
0.02897916667,-0.0006663078675
0.029,-0.0006862762384
0.02902083333,-0.0007063540397
0.02904166667,-0.0007371274987
0.0290625,-0.0007556898636
0.02908333333,-0.0007737699198
0.02910416667,-0.0007812150288
0.029125,-0.0008033199701
0.02914583333,-0.0008225974743
0.02916666667,-0.0008479245007
0.0291875,-0.0008817302878
0.02920833333,-0.0009130981052
0.02922916667,-0.0009467850323
0.02925,-0.0009743404808
0.02927083333,-0.0009924197802
0.02929166667,-0.0009960485622
0.0293125,-0.0009888652712
0.02933333333,-0.0009765906725
0.02935416667,-0.0009667745908
0.029375,-0.0009850591887
0.02939583333,-0.001011295361
0.02941666667,-0.001034321147
0.0294375,-0.001049115905
0.02945833333,-0.001052386477
0.02947916667,-0.00105530466
0.0295,-0.001049575629
0.02952083333,-0.001046067802
0.02954166667,-0.001048671664
0.0295625,-0.001034028479
0.02958333333,-0.0009743356495
0.02960416667,-0.0008907682495
0.029625,-0.0008084403235
0.02964583333,-0.0007716994733
0.02966666667,-0.0007660586853
0.0296875,-0.0008154431707
0.02970833333,-0.0008569652564
0.02972916667,-0.0008950496558
0.02975,-0.0009100291063
0.02977083333,-0.0009222620865
0.02979166667,-0.0009273469332
0.0298125,-0.0009382596472
0.02983333333,-0.0009316275246
0.02985416667,-0.000947679393
0.029875,-0.0009988406673
0.02989583333,-0.001072957413
0.02991666667,-0.001177748549
0.0299375,-0.001311444794
0.02995833333,-0.001359700342
0.02997916667,-0.001405452262
0.03,0.000189375467
0.03002083333,0.0001760547602
0.03004166667,0.000153217843
0.0300625,2.037090053e-05
0.03008333333,-5.895999493e-05
0.03010416667,-0.0001332217653
0.030125,-0.0001693567901
0.03014583333,-0.0001480869396
0.03016666667,-0.0001247827167
0.0301875,-9.234936442e-05
0.03020833333,-8.208442887e-05
0.03022916667,-7.600704703e-05
0.03025,-5.805800538e-05
0.03027083333,-7.638112584e-05
0.03029166667,-9.656494512e-05
0.0303125,-0.0001200635597
0.03033333333,-0.0001030910935
0.03035416667,-5.15800275e-05
0.030375,5.448242518e-05
0.03039583333,0.0001553861221
0.03041666667,0.000241738031
0.0304375,0.0002688948007
0.03045833333,0.0002836644999
0.03047916667,0.0003051797394
0.0305,0.0003306372091
0.03052083333,0.0003473869001
0.03054166667,0.0003749481984
0.0305625,0.0003920161398
0.03058333333,0.0004106445122
0.03060416667,0.0004290977959
0.030625,0.0004574230406
0.03064583333,0.0005334910238
0.03066666667,0.0006045128684
0.0306875,0.0006526216748
0.03070833333,0.0006818878464
0.03072916667,0.0006684638793
0.03075,0.0006579653127
0.03077083333,0.0006353799254
0.03079166667,0.0006097924197
0.0308125,0.0005783064407
0.03083333333,0.0005568652996
0.03085416667,0.0005533184158
0.030875,0.0005307589308
0.03089583333,0.000532574486
0.03091666667,0.0005242949119
0.0309375,0.0005205328343
0.03095833333,0.0005153333768
0.03097916667,0.0005233680131
0.031,0.0005181843298
0.03102083333,0.0005207002978
0.03104166667,0.0005533129442
0.0310625,0.000566449482
0.03108333333,0.0005551514914
0.03110416667,0.0005467094015
0.031125,0.0005225128261
0.03114583333,0.0005146098556
0.03116666667,0.0005189853837
0.0311875,0.0005259796162
0.03120833333,0.0005246303626
0.03122916667,0.0004901573993
0.03125,0.0004269682977
0.03127083333,0.0003840427962
0.03129166667,0.0003588513064
0.0313125,0.0003810193448
0.03133333333,0.0004176592338
0.03135416667,0.0004528964055
0.031375,0.0004830866237
0.03139583333,0.0004661524436
0.03141666667,0.0004521106021
0.0314375,0.0004274714156
0.03145833333,0.0004003577051
0.03147916667,0.0003849368659
0.0315,0.0003387454781
0.03152083333,0.0003138744214
0.03154166667,0.0002752658911
0.0315625,0.0002468140156
0.03158333333,0.0002278032916
0.03160416667,0.000211187129
0.031625,0.000221744529
0.03164583333,0.0002441822144
0.03166666667,0.0002897015947
0.0316875,0.0003423963499
0.03170833333,0.0003707052092
0.03172916667,0.0003881396551
0.03175,0.0003870212531
0.03177083333,0.0003843270824
0.03179166667,0.0003836733813
0.0318125,0.000396925956
0.03183333333,0.0004193079949
0.03185416667,0.0004260715505
0.031875,0.0004261545837
0.03189583333,0.0004154117196
0.03191666667,0.0004181656986
0.0319375,0.0004212559143
0.03195833333,0.0004232685897
0.03197916667,0.0004322848981
0.032,0.0004224196018
0.03202083333,0.000431432185
0.03204166667,0.0004065840039
0.0320625,0.0004088187125
0.03208333333,0.0003949645616
0.03210416667,0.0004000540939
0.032125,0.0004452833673
0.03214583333,0.0004538664653
0.03216666667,0.00046928745
0.0321875,0.0004772182438
0.03220833333,0.000464130484
0.03222916667,0.0004562901449
0.03225,0.0004575152998
0.03227083333,0.0004496923066
0.03229166667,0.0004307450727
0.0323125,0.0004542514216
0.03233333333,0.0004715215473
0.03235416667,0.0005035212962
0.032375,0.0005612639361
0.03239583333,0.0006015477702
0.03241666667,0.0006436211988
0.0324375,0.0006558615132
0.03245833333,0.0006804128643
0.03247916667,0.0006890854565
0.0325,0.0007091594744
0.03252083333,0.000723650388
0.03254166667,0.0007412050618
0.0325625,0.0007773170946
0.03258333333,0.0008016441716
0.03260416667,0.0007899014745
0.032625,0.0007842094637
0.03264583333,0.0007497071638
0.03266666667,0.0007308832137
0.0326875,0.0006792377098
0.03270833333,0.0006538518937
0.03272916667,0.0006968363305
0.03275,0.0007471028948
0.03277083333,0.000794050924
0.03279166667,0.0008076810045
0.0328125,0.0008458803641
0.03283333333,0.0008619713481
0.03285416667,0.0008621951565
0.032875,0.0008653756813
0.03289583333,0.0008913187194
0.03291666667,0.0009194333106
0.0329375,0.0009306226857
0.03295833333,0.0009513177793
0.03297916667,0.0009816597449
0.033,0.001021301141
0.03302083333,0.00103461626
0.03304166667,0.001043079421
0.0330625,0.001083729207
0.03308333333,0.001119140768
0.03310416667,0.001135855448
0.033125,0.001149453223
0.03314583333,0.001192302676
0.03316666667,0.001208209433
0.0331875,0.001198418671
0.03320833333,0.001184257329
0.03322916667,0.001163235283
0.03325,0.001144663896
0.03327083333,0.001109221252
0.03329166667,0.001095569227
0.0333125,0.001094757579
0.03333333333,0.001094903564
0.03335416667,0.001131913974
0.033375,0.001132549602
0.03339583333,0.001177503611
0.03341666667,0.001194362761
0.0334375,0.001230673166
0.03345833333,0.001283395919
0.03347916667,0.001318120514
0.0335,0.001398580149
0.03352083333,0.001419727341
0.03354166667,0.001482802094
0.0335625,0.001498688478
0.03358333333,0.001471517142
0.03360416667,0.001478049322
0.033625,0.001454179408
0.03364583333,0.001448455267
0.03366666667,0.001418525353
0.0336875,0.001407294068
0.03370833333,0.001428520307
0.03372916667,0.001412851154
0.03375,0.001424473361
0.03377083333,0.001440568711
0.03379166667,0.00146938581
0.0338125,0.001493319636
0.03383333333,0.001536851749
0.03385416667,0.001585507998
0.033875,0.001626420068
0.03389583333,0.001629778068
0.03391666667,0.001625541248
0.0339375,0.001630890183
0.03395833333,0.001620123163
0.03397916667,0.001615736634
0.034,0.001580764074
0.03402083333,0.001564779785
0.03404166667,0.001551883994
0.0340625,0.001571115339
0.03408333333,0.001601302298
0.03410416667,0.001625008881
0.034125,0.001671100617
0.03414583333,0.001723925467
0.03416666667,0.001759396051
0.0341875,0.001835437142
0.03420833333,0.001867419225
0.03422916667,0.001891044318
0.03425,0.00193240121
0.03427083333,0.001908038976
0.03429166667,0.001957629109
0.0343125,0.001956381369
0.03433333333,0.0019011728
0.03435416667,0.001929803984
0.034375,0.001943811076
0.03439583333,0.001931302832
0.03441666667,0.001972077414
0.0344375,0.00196789531
0.03445833333,0.002009476302
0.03447916667,0.002084013075
0.0345,0.00206382107
0.03452083333,0.002086552093
0.03454166667,0.002114437055
0.0345625,0.002148711588
0.03458333333,0.002166178776
0.03460416667,0.002186739584
0.034625,0.002188281156
0.03464583333,0.002146455226
0.03466666667,0.00214445428
0.0346875,0.002178307856
0.03470833333,0.002159753582
0.03472916667,0.002176677808
0.03475,0.002230831422
0.03477083333,0.002256438602
0.03479166667,0.002276110696
0.0348125,0.002307908842
0.03483333333,0.002362256637
0.03485416667,0.002365490654
0.034875,0.0024063366
0.03489583333,0.002440914046
0.03491666667,0.002487372141
0.0349375,0.0025585494
0.03495833333,0.002606265247
0.03497916667,0.002682965714
0.035,0.002714905655
0.03502083333,0.002728458494
0.03504166667,0.002756517613
0.0350625,0.002770401305
0.03508333333,0.002754504792
0.03510416667,0.002694197698
0.035125,0.002647250658
0.03514583333,0.002613663208
0.03516666667,0.002621388296
0.0351875,0.00266720308
0.03520833333,0.002712559653
0.03522916667,0.002793276217
0.03525,0.002841725014
0.03527083333,0.002891215961
0.03529166667,0.002906254726
0.0353125,0.002930335701
0.03533333333,0.00291963364
0.03535416667,0.002967224456
0.035375,0.003054756206
0.03539583333,0.003139370587
0.03541666667,0.003165962175
0.0354375,0.003225526772
0.03545833333,0.003285361687
0.03547916667,0.003318681382
0.0355,0.003300926415
0.03552083333,0.003283859929
0.03554166667,0.003265372477
0.0355625,0.003237673081
0.03558333333,0.003240092192
0.03560416667,0.003325916594
0.035625,0.00339252688
0.03564583333,0.003460404463
0.03566666667,0.003544558305
0.0356875,0.003574012313
0.03570833333,0.003592295805
0.03572916667,0.003564481158
0.03575,0.003520134138
0.03577083333,0.003524329513
0.03579166667,0.003506467678
0.0358125,0.003540395992
0.03583333333,0.003579376964
0.03585416667,0.003636279609
0.035875,0.003705621697
0.03589583333,0.003773723729
0.03591666667,0.003845277242
0.0359375,0.003916760441
0.03595833333,0.003913511056
0.03597916667,0.003988876939
0.036,0.003990304656
0.03602083333,0.004076587968
0.03604166667,0.004153022543
0.0360625,0.004212201573
0.03608333333,0.004254070111
0.03610416667,0.004234639928
0.036125,0.004192119464
0.03614583333,0.004118416458
0.03616666667,0.004050050862
0.0361875,0.00397614995
0.03620833333,0.003949792124
0.03622916667,0.003926696256
0.03625,0.003928289749
0.03627083333,0.003965380602
0.03629166667,0.004000449553
0.0363125,0.004080692772
0.03633333333,0.00414532423
0.03635416667,0.004232787061
0.036375,0.004278665874
0.03639583333,0.004286931362
0.03641666667,0.004284474999
0.0364375,0.004223223776
0.03645833333,0.004230397288
0.03647916667,0.004158368334
0.0365,0.004153407644
0.03652083333,0.004085853696
0.03654166667,0.00404437352
0.0365625,0.004033453763
0.03658333333,0.004105429165
0.03660416667,0.004082343541
0.036625,0.004096090794
0.03664583333,0.0041679102
0.03666666667,0.004177859984
0.0366875,0.004186608829
0.03670833333,0.004221633077
0.03672916667,0.004218686372
0.03675,0.004248043522
0.03677083333,0.004287752323
0.03679166667,0.004252085462
0.0368125,0.004225971643
0.03683333333,0.004114915151
0.03685416667,0.004088242073
0.036875,0.00406651292
0.03689583333,0.003982627764
0.03691666667,0.003951159772
0.0369375,0.003903172445
0.03695833333,0.003968405537
0.03697916667,0.00398125872
0.037,0.004054924939
0.03702083333,0.004128756002
0.03704166667,0.004183657467
0.0370625,0.004255922511
0.03708333333,0.004268443212
0.03710416667,0.004233844578
0.037125,0.004148146603
0.03714583333,0.00411457615
0.03716666667,0.004029936157
0.0371875,0.003967786673
0.03720833333,0.003907763399
0.03722916667,0.003793743206
0.03725,0.003752837889
0.03727083333,0.003739127424
0.03729166667,0.003714237828
0.0373125,0.003760690568
0.03733333333,0.003854287323
0.03735416667,0.00387077406
0.037375,0.003908567131
0.03739583333,0.003952427302
0.03741666667,0.003955089487
0.0374375,0.004000676796
0.03745833333,0.004042191431
0.03747916667,0.004099501297
0.0375,0.004066002555
0.03752083333,0.004017535597
0.03754166667,0.003976822831
0.0375625,0.003819977865
0.03758333333,0.003693662118
0.03760416667,0.003611183492
0.037625,0.003572715912
0.03764583333,0.00349032972
0.03766666667,0.003468364943
0.0376875,0.003508643713
0.03770833333,0.0035171411
0.03772916667,0.003570692847
0.03775,0.003631660249
0.03777083333,0.003564948682
0.03779166667,0.003454654478
0.0378125,0.003627138212
0.03783333333,0.003586292034
0.03785416667,0.003592481138
0.037875,0.003644007258
0.03789583333,0.003595618997
0.03791666667,0.003599387128
0.0379375,0.00368326623
0.03795833333,0.003584363498
0.03797916667,0.003416740336
0.038,0.003363323631
0.03802083333,0.003287709784
0.03804166667,0.00328271836
0.0380625,0.003339792369
0.03808333333,0.003368635662
0.03810416667,0.003402593546
0.038125,0.003384912619
0.03814583333,0.003347680438
0.03816666667,0.00325863855
0.0381875,0.003225026187
0.03820833333,0.003155854065
0.03822916667,0.003118965775
0.03825,0.003033242887
0.03827083333,0.002946432214
0.03829166667,0.002879013075
0.0383125,0.002809128258
0.03833333333,0.002759331372
0.03835416667,0.00272807572
0.038375,0.002724921564
0.03839583333,0.002712070709
0.03841666667,0.002744565485
0.0384375,0.002791799605
0.03845833333,0.002802623902
0.03847916667,0.002839831403
0.0385,0.002848295961
0.03852083333,0.00285740383
0.03854166667,0.002775806934
0.0385625,0.002653189469
0.03858333333,0.002492202912
0.03860416667,0.002415231429
0.038625,0.002251733094
0.03864583333,0.00213147793
0.03866666667,0.002034541219
0.0386875,0.00202475721
0.03870833333,0.001995983766
0.03872916667,0.001938206842
0.03875,0.002000647597
0.03877083333,0.001964617288
0.03879166667,0.002028823597
0.0388125,0.00208203448
0.03883333333,0.002109547611
0.03885416667,0.00224563526
0.038875,0.002082826104
0.03889583333,0.00203003292
0.03891666667,0.00212366553
0.0389375,0.002012155019
0.03895833333,0.001867323066
0.03897916667,0.001745838905
0.039,0.001736585749
0.03902083333,0.001674250816
0.03904166667,0.00156921125
0.0390625,0.001582120778
0.03908333333,0.001559814904
0.03910416667,0.001671496895
0.039125,0.001730529591
0.03914583333,0.001828913577
0.03916666667,0.001869980479
0.0391875,0.001893122913
0.03920833333,0.001881122822
0.03922916667,0.00185903348
0.03925,0.001863314072
0.03927083333,0.001854485134
0.03929166667,0.001777342288
0.0393125,0.001710044453
0.03933333333,0.001580066979
0.03935416667,0.001510831993
0.039375,0.001431504497
0.03939583333,0.00145300536
0.03941666667,0.001469578128
0.0394375,0.001463521272
0.03945833333,0.001512462506
0.03947916667,0.001533472678
0.0395,0.001591172069
0.03952083333,0.001661252463
0.03954166667,0.001604182762
0.0395625,0.001621678472
0.03958333333,0.001563749509
0.03960416667,0.001463584369
0.039625,0.001364190131
0.03964583333,0.001231016591
0.03966666667,0.001076363376
0.0396875,0.0009484435432
0.03970833333,0.0008409492439
0.03972916667,0.0007703713491
0.03975,0.0007789285155
0.03977083333,0.0006684174878
0.03979166667,0.0006032846868
0.0398125,0.0005816917983
0.03983333333,0.000562813133
0.03985416667,0.0006307390286
0.039875,0.0006572874263
0.03989583333,0.0007189304451
0.03991666667,0.0006891227094
0.0399375,0.0007360702148
0.03995833333,0.000569829077
0.03997916667,0.0004420577898
0.04,0.0002260524925
0.04002083333,8.041037654e-05
0.04004166667,-9.959717136e-05
0.0400625,-0.0002695661678
0.04008333333,-0.0004187978047
0.04010416667,-0.0005516613019
0.040125,-0.0006530142273
0.04014583333,-0.0007922704681
0.04016666667,-0.0008534286171
0.0401875,-0.000953308423
0.04020833333,-0.001012255438
0.04022916667,-0.001064887387
0.04025,-0.001121127047
0.04027083333,-0.001217858284
0.04029166667,-0.00128154445
0.0403125,-0.001310143387
0.04033333333,-0.001349211088
0.04035416667,-0.001420119312
0.040375,-0.001523724175
0.04039583333,-0.001620732131
0.04041666667,-0.001692726393
0.0404375,-0.001764519839
0.04045833333,-0.001866083941
0.04047916667,-0.001906969468
0.0405,-0.001943666255
0.04052083333,-0.001987623051
0.04054166667,-0.002012067009
0.0405625,-0.002102205995
0.04058333333,-0.002119547455
0.04060416667,-0.002191774081
0.040625,-0.00222392776
0.04064583333,-0.002315229503
0.04066666667,-0.002359078731
0.0406875,-0.002383086365
0.04070833333,-0.00240461342
0.04072916667,-0.002449236577
0.04075,-0.002491939114
0.04077083333,-0.002543573733
0.04079166667,-0.002568504773
0.0408125,-0.002643708605
0.04083333333,-0.002713189926
0.04085416667,-0.002784081968
0.040875,-0.002857749583
0.04089583333,-0.002872601617
0.04091666667,-0.002896183403
0.0409375,-0.002891550772
0.04095833333,-0.002871096134
0.04097916667,-0.002891229466
0.041,-0.002897344064
0.04102083333,-0.002929047216
0.04104166667,-0.002982204547
0.0410625,-0.003012999427
0.04108333333,-0.003052927786
0.04110416667,-0.003116627457
0.041125,-0.003142962232
0.04114583333,-0.003183899214
0.04116666667,-0.003190407762
0.0411875,-0.003261287231
0.04120833333,-0.003269962501
0.04122916667,-0.003294704715
0.04125,-0.003314414294
0.04127083333,-0.00334190228
0.04129166667,-0.003415189451
0.0413125,-0.003458431922
0.04133333333,-0.0035082791
0.04135416667,-0.003539661877
0.041375,-0.003564663464
0.04139583333,-0.003585504834
0.04141666667,-0.003558981698
0.0414375,-0.00359341735
0.04145833333,-0.003675720422
0.04147916667,-0.003783692373
0.0415,-0.003882393474
0.04152083333,-0.003925262019
0.04154166667,-0.003993623424
0.0415625,-0.003996482585
0.04158333333,-0.004012995865
0.04160416667,-0.004065473564
0.041625,-0.004040561151
0.04164583333,-0.004093222786
0.04166666667,-0.004092274699
0.0416875,-0.004119110294
0.04170833333,-0.004132172558
0.04172916667,-0.004175398964
0.04175,-0.004197917413
0.04177083333,-0.004282409325
0.04179166667,-0.004462826066
0.0418125,-0.004497686867
0.04183333333,-0.004683311563
0.04185416667,-0.004773102701
0.041875,-0.004906370305
0.04189583333,-0.005029114429
0.04191666667,-0.005013276357
0.0419375,-0.005008205771
0.04195833333,-0.005053313449
0.04197916667,-0.005059287883
0.042,-0.00504125515
0.04202083333,-0.005058746785
0.04204166667,-0.005013478454
0.0420625,-0.004998835735
0.04208333333,-0.004964028951
0.04210416667,-0.004901075736
0.042125,-0.004961870611
0.04214583333,-0.004981727805
0.04216666667,-0.005090478808
0.0421875,-0.005201623775
0.04220833333,-0.00529765198
0.04222916667,-0.005482417531
0.04225,-0.005633235443
0.04227083333,-0.005735035986
0.04229166667,-0.005813402589
0.0423125,-0.005886374507
0.04233333333,-0.00584974885
0.04235416667,-0.005876857787
0.042375,-0.005827525165
0.04239583333,-0.005806972738
0.04241666667,-0.005799146369
0.0424375,-0.005838203244
0.04245833333,-0.005967010744
0.04247916667,-0.006026315503
0.0425,-0.006101077888
0.04252083333,-0.006232732907
0.04254166667,-0.006357339211
0.0425625,-0.006567193661
0.04258333333,-0.006658256054
0.04260416667,-0.00677138241
0.042625,-0.006883566733
0.04264583333,-0.006930467207
0.04266666667,-0.007012262475
0.0426875,-0.007087635342
0.04270833333,-0.007120236754
0.04272916667,-0.00716635352
0.04275,-0.007183820475
0.04277083333,-0.007205861155
0.04279166667,-0.007264574524
0.0428125,-0.007160203997
0.04283333333,-0.007214609068
0.04285416667,-0.007235343102
0.042875,-0.007311516441
0.04289583333,-0.007459468674
0.04291666667,-0.00752216531
0.0429375,-0.007578246761
0.04295833333,-0.007708557416
0.04297916667,-0.007753286511
0.043,-0.007886030711
0.04302083333,-0.00794968009
0.04304166667,-0.007995464839
0.0430625,-0.008091771044
0.04308333333,-0.008066825569
0.04310416667,-0.008123180829
0.043125,-0.008089772426
0.04314583333,-0.008066526614
0.04316666667,-0.008064177819
0.0431875,-0.008070982061
0.04320833333,-0.008087694645
0.04322916667,-0.0080770934
0.04325,-0.008170810528
0.04327083333,-0.008217900991
0.04329166667,-0.008209864609
0.0433125,-0.008230327629
0.04333333333,-0.008274471387
0.04335416667,-0.008321939968
0.043375,-0.008382698521
0.04339583333,-0.008410918526
0.04341666667,-0.008394420147
0.0434375,-0.008421826176
0.04345833333,-0.00848561991
0.04347916667,-0.008511682041
0.0435,-0.008543709293
0.04352083333,-0.008550217375
0.04354166667,-0.008597749285
0.0435625,-0.008590875193
0.04358333333,-0.008627349511
0.04360416667,-0.008694540709
0.043625,-0.008707253262
0.04364583333,-0.008791011758
0.04366666667,-0.008780376054
0.0436875,-0.00873702392
0.04370833333,-0.008706803434
0.04372916667,-0.00872711651
0.04375,-0.008758328855
0.04377083333,-0.00879889261
0.04379166667,-0.008772213012
0.0438125,-0.008801795542
0.04383333333,-0.008865959942
0.04385416667,-0.008888630196
0.043875,-0.008925829083
0.04389583333,-0.008928691968
0.04391666667,-0.009046070278
0.0439375,-0.009152625687
0.04395833333,-0.009229985997
0.04397916667,-0.009469771758
0.044,-0.009463016875
0.04402083333,-0.00950526353
0.04404166667,-0.009522599168
0.0440625,-0.009579574689
0.04408333333,-0.009636284783
0.04410416667,-0.009569833055
0.044125,-0.009655681439
0.04414583333,-0.009658626281
0.04416666667,-0.00977411028
0.0441875,-0.009843954816
0.04420833333,-0.009866281413
0.04422916667,-0.009957107715
0.04425,-0.009907591157
0.04427083333,-0.009917081334
0.04429166667,-0.009970076382
0.0443125,-0.01007811446
0.04433333333,-0.01010758616
0.04435416667,-0.01028454211
0.044375,-0.01036504563
0.04439583333,-0.01039936487
0.04441666667,-0.01048712526
0.0444375,-0.01045017969
0.04445833333,-0.01044513378
0.04447916667,-0.01038298942
0.0445,-0.01034563687
0.04452083333,-0.01030063443
0.04454166667,-0.01033379324
0.0445625,-0.01035047136
0.04458333333,-0.01044779737
0.04460416667,-0.01052831858
0.044625,-0.01058296394
0.04464583333,-0.01073788572
0.04466666667,-0.01082816254
0.0446875,-0.01087865047
0.04470833333,-0.01094399579
0.04472916667,-0.0110332109
0.04475,-0.01110254787
0.04477083333,-0.01110995188
0.04479166667,-0.01107032225
0.0448125,-0.01102583855
0.04483333333,-0.01108574029
0.04485416667,-0.01109328307
0.044875,-0.01110528782
0.04489583333,-0.01112204976
0.04491666667,-0.01111075655
0.0449375,-0.01125389803
0.04495833333,-0.01133940648
0.04497916667,-0.01143958885
0.045,-0.01165706385
0.04502083333,-0.01191395149
0.04504166667,-0.01211798936
0.0450625,-0.01239208505
0.04508333333,-0.012650433
0.04510416667,-0.01284530386
0.045125,-0.0130830761
0.04514583333,-0.01318084635
0.04516666667,-0.01329520345
0.0451875,-0.01338142529
0.04520833333,-0.01344255451
0.04522916667,-0.01338078082
0.04525,-0.01345489919
0.04527083333,-0.01347375847
0.04529166667,-0.01359098498
0.0453125,-0.01371143758
0.04533333333,-0.01379082352
0.04535416667,-0.01395061053
0.045375,-0.01411199942
0.04539583333,-0.01417572051
0.04541666667,-0.01435022801
0.0454375,-0.01445171982
0.04545833333,-0.01459032111
0.04547916667,-0.01461805869
0.0455,-0.01467432268
0.04552083333,-0.01474437676
0.04554166667,-0.01475361455
0.0455625,-0.01472947281
0.04558333333,-0.01471046917
0.04560416667,-0.01468401775
0.045625,-0.01464131661
0.04564583333,-0.01463055331
0.04566666667,-0.01463330351
0.0456875,-0.01479908824
0.04570833333,-0.0149422735
0.04572916667,-0.01513323281
0.04575,-0.0152976308
0.04577083333,-0.01544024702
0.04579166667,-0.01560037956
0.0458125,-0.01560444757
0.04583333333,-0.01565751806
0.04585416667,-0.01569471881
0.045875,-0.01571241394
0.04589583333,-0.01571374759
0.04591666667,-0.01572911255
0.0459375,-0.01566253603
0.04595833333,-0.01561173704
0.04597916667,-0.01558844279
0.046,-0.01560715027
0.04602083333,-0.0155624412
0.04604166667,-0.01549202297
0.0460625,-0.01549754012
0.04608333333,-0.01557551045
0.04610416667,-0.01566707157
0.046125,-0.01584515348
0.04614583333,-0.01594341546
0.04616666667,-0.01611742191
0.0461875,-0.01616756432
0.04620833333,-0.01623865217
0.04622916667,-0.01631268859
0.04625,-0.01618298143
0.04627083333,-0.01612175256
0.04629166667,-0.01603195444
0.0463125,-0.01595095173
0.04633333333,-0.01596275344
0.04635416667,-0.01595792547
0.046375,-0.01597207598
0.04639583333,-0.01609878428
0.04641666667,-0.01607249863
0.0464375,-0.0160135515
0.04645833333,-0.01602971926
0.04647916667,-0.01600946672
0.0465,-0.01603427343
0.04652083333,-0.01608850993
0.04654166667,-0.01620211266
0.0465625,-0.01626930386
0.04658333333,-0.01626554318
0.04660416667,-0.01622514986
0.046625,-0.01619492099
0.04664583333,-0.01611687057
0.04666666667,-0.0159976501
0.0466875,-0.01586860232
0.04670833333,-0.01581137627
0.04672916667,-0.01576458849
0.04675,-0.01565556973
0.04677083333,-0.01562287658
0.04679166667,-0.01561078615
0.0468125,-0.01566580497
0.04683333333,-0.01565705054
0.04685416667,-0.01572715677
0.046875,-0.0156854894
0.04689583333,-0.01573280245
0.04691666667,-0.01561462414
0.0469375,-0.01540539693
0.04695833333,-0.01557347178
0.04697916667,-0.01545239519
0.047,-0.01524715126
0.04702083333,-0.01508653071
0.04704166667,-0.01481892262
0.0470625,-0.01459455956
0.04708333333,-0.01452634763
0.04710416667,-0.0143915154
0.047125,-0.01440278348
0.04714583333,-0.014509934
0.04716666667,-0.01463094167
0.0471875,-0.01476844959
0.04720833333,-0.0149525851
0.04722916667,-0.01508612558
0.04725,-0.01525772177
0.04727083333,-0.01526659075
0.04729166667,-0.01520203147
0.0473125,-0.01505546086
0.04733333333,-0.01493660174
0.04735416667,-0.01467821375
0.047375,-0.01438361313
0.04739583333,-0.01409742981
0.04741666667,-0.01387967169
0.0474375,-0.01358152367
0.04745833333,-0.01331112627
0.04747916667,-0.01307815313
0.0475,-0.01286627445
0.04752083333,-0.01277932525
0.04754166667,-0.0126618566
0.0475625,-0.01266259328
0.04758333333,-0.0127323959
0.04760416667,-0.0127153825
0.047625,-0.01267457567
0.04764583333,-0.01246847771
0.04766666667,-0.01237526909
0.0476875,-0.01212517731
0.04770833333,-0.01190636028
0.04772916667,-0.01169693656
0.04775,-0.01143159717
0.04777083333,-0.0111726094
0.04779166667,-0.01078131516
0.0478125,-0.01052781381
0.04783333333,-0.01030038297
0.04785416667,-0.0101208752
0.047875,-0.009982399642
0.04789583333,-0.009883008897
0.04791666667,-0.01000212878
0.0479375,-0.009866562672
0.04795833333,-0.009754464962
0.04797916667,-0.009597929195
0.048,-0.009389247745
0.04802083333,-0.009073358029
0.04804166667,-0.008688502945
0.0480625,-0.008616620675
0.04808333333,-0.008118106984
0.04810416667,-0.007662566379
0.048125,-0.007320362609
0.04814583333,-0.006870781071
0.04816666667,-0.006620871834
0.0481875,-0.006300621666
0.04820833333,-0.006062495057
0.04822916667,-0.00583316898
0.04825,-0.005651114974
0.04827083333,-0.005528833717
0.04829166667,-0.00535574602
0.0483125,-0.005193686113
0.04833333333,-0.005023363512
0.04835416667,-0.004840711597
0.048375,-0.004706442356
0.04839583333,-0.004467236344
0.04841666667,-0.004136187024
0.0484375,-0.003788159927
0.04845833333,-0.003417547327
0.04847916667,-0.003022699617
0.0485,-0.002699576085
0.04852083333,-0.002486085286
0.04854166667,-0.002330033807
0.0485625,-0.00223275274
0.04858333333,-0.002175928792
0.04860416667,-0.002221231814
0.048625,-0.002158341231
0.04864583333,-0.002171151806
0.04866666667,-0.002169812098
0.0486875,-0.002047213726
0.04870833333,-0.002046603244
0.04872916667,-0.001879994874
0.04875,-0.001759826671
0.04877083333,-0.001603173558
0.04879166667,-0.001383676776
0.0488125,-0.001187090529
0.04883333333,-0.0009998313617
0.04885416667,-0.0007895901217
0.048875,-0.0005470144679
0.04889583333,-0.000356190023
0.04891666667,-0.0002433037153
0.0489375,-0.0001691480866
0.04895833333,-9.465659969e-05
0.04897916667,-5.86588867e-05
0.049,-3.148580436e-05
0.04902083333,-8.321774658e-05
0.04904166667,-0.0001386803342
0.0490625,-0.0001168965828
0.04908333333,-0.0002203646582
0.04910416667,-2.360146027e-05
0.049125,0.0003199190833
0.04914583333,0.0002920387778
0.04916666667,0.0005426724674
0.0491875,0.0007719477871
0.04920833333,0.001008382183
0.04922916667,0.00155573315
0.04925,0.001730107237
0.04927083333,0.001818915713
0.04929166667,0.001979853259
0.0493125,0.002047550166
0.04933333333,0.002187517937
0.04935416667,0.002156315139
0.049375,0.002151464345
0.04939583333,0.002115791198
0.04941666667,0.002067415277
0.0494375,0.002105684485
0.04945833333,0.002102979692
0.04947916667,0.002269835444
0.0495,0.002388159279
0.04952083333,0.00258069532
0.04954166667,0.002832155442
0.0495625,0.003052157583
0.04958333333,0.00333925779
0.04960416667,0.003546638181
0.049625,0.003664432326
0.04964583333,0.003798463382
0.04966666667,0.003882907331
0.0496875,0.003950011916
0.04970833333,0.004098049365
0.04972916667,0.004207486287
0.04975,0.004247094505
0.04977083333,0.004331781995
0.04979166667,0.004431740846
0.0498125,0.004630116746
0.04983333333,0.004858813249
0.04985416667,0.005142580718
0.049875,0.005410856102
0.04989583333,0.005655934568
0.04991666667,0.005889533553
0.0499375,0.006067116745
0.04995833333,0.006242402829
0.04997916667,0.006435161922
0.05,0.006576995365
0.05002083333,0.006762734614
0.05004166667,0.006885722745
0.0500625,0.006949384697
0.05008333333,0.00724371383
0.05010416667,0.007465994451
0.050125,0.007588413078
0.05014583333,0.007826366462
0.05016666667,0.008017867804
0.0501875,0.008317869157
0.05020833333,0.008509927429
0.05022916667,0.008731956594
0.05025,0.008989365771
0.05027083333,0.009105937555
0.05029166667,0.009205115028
0.0503125,0.009336759336
0.05033333333,0.009523627348
0.05035416667,0.009726312943
0.050375,0.009888014756
0.05039583333,0.01003524289
0.05041666667,0.01020838879
0.0504375,0.01038572472
0.05045833333,0.01052785572
0.05047916667,0.01058366522
0.0505,0.01074100006
0.05052083333,0.01095885038
0.05054166667,0.01112822164
0.0505625,0.01138263475
0.05058333333,0.01150179654
0.05060416667,0.01168100443
0.050625,0.01183351036
0.05064583333,0.01199017093
0.05066666667,0.01212971751
0.0506875,0.01222388819
0.05070833333,0.01231571659
0.05072916667,0.01242995076
0.05075,0.01258786302
0.05077083333,0.01267675404
0.05079166667,0.01277812198
0.0508125,0.01292601321
0.05083333333,0.01308050472
0.05085416667,0.01325588953
0.050875,0.01341007184
0.05089583333,0.0135354707
0.05091666667,0.0136500774
0.0509375,0.01378779765
0.05095833333,0.01400015503
0.05097916667,0.01413038839
0.051,0.01426477265
0.05102083333,0.01435468253
0.05104166667,0.01448623929
0.0510625,0.0145113999
0.05108333333,0.01453354768
0.05110416667,0.01456973609
0.051125,0.01469232328
0.05114583333,0.01484279707
0.05116666667,0.01484359242
0.0511875,0.01498819143
0.05120833333,0.0150345955
0.05122916667,0.01509041805
0.05125,0.01518413331
0.05127083333,0.01522038691
0.05129166667,0.01536515728
0.0513125,0.01541904267
0.05133333333,0.01552288048
0.05135416667,0.01560202893
0.051375,0.01570476778
0.05139583333,0.01591777802
0.05141666667,0.01606479287
0.0514375,0.01617810316
0.05145833333,0.01629991643
0.05147916667,0.01640251465
0.0515,0.01643141732
0.05152083333,0.01654977724
0.05154166667,0.01664014533
0.0515625,0.01677811146
0.05158333333,0.01689488254
0.05160416667,0.01696206816
0.051625,0.01710069925
0.05164583333,0.01721113361
0.05166666667,0.01730294526
0.0516875,0.01740286499
0.05170833333,0.01746166125
0.05172916667,0.01758855581
0.05175,0.01768359542
0.05177083333,0.017782785
0.05179166667,0.0178724695
0.0518125,0.01790392026
0.05183333333,0.0179235898
0.05185416667,0.01803425886
0.051875,0.01799817383
0.05189583333,0.01789715327
0.05191666667,0.01785757765
0.0519375,0.01770188101
0.05195833333,0.01774949208
0.05197916667,0.01779993251
0.052,0.01788484864
0.05202083333,0.01797557063
0.05204166667,0.01817010902
0.0520625,0.01836565509
0.05208333333,0.01842943765
0.05210416667,0.01860185713
0.052125,0.01873237267
0.05214583333,0.01877302676
0.05216666667,0.01879499853
0.0521875,0.01873571053
0.05220833333,0.0186884068
0.05222916667,0.01858083531
0.05225,0.0185017772
0.05227083333,0.01842390932
0.05229166667,0.01838916726
0.0523125,0.01839793101
0.05233333333,0.01840578765
0.05235416667,0.01845738664
0.052375,0.01849436201
0.05239583333,0.0185772758
0.05241666667,0.01859790832
0.0524375,0.0186574813
0.05245833333,0.01872813329
0.05247916667,0.01874836907
0.0525,0.01878353767
0.05252083333,0.01872812957
0.05254166667,0.01875238121
0.0525625,0.01882548071
0.05258333333,0.0188926924
0.05260416667,0.01894499175
0.052625,0.01900683343
0.05264583333,0.0191770941
0.05266666667,0.01929739304
0.0526875,0.01954730973
0.05270833333,0.01975287311
0.05272916667,0.01997153275
0.05275,0.02027257718
0.05277083333,0.02043040469
0.05279166667,0.02061588131
0.0528125,0.02075718716
0.05283333333,0.02085965313
0.05285416667,0.02092172764
0.052875,0.02104203403
0.05289583333,0.0211847648
0.05291666667,0.02125233598
0.0529375,0.02133312821
0.05295833333,0.02137422375
0.05297916667,0.02138666809
0.053,0.02135564201
0.05302083333,0.02136141434
0.05304166667,0.02144186199
0.0530625,0.02154518478
0.05308333333,0.02172077633
0.05310416667,0.02180886455
0.053125,0.02186602913
0.05314583333,0.02199748717
0.05316666667,0.02214432508
0.0531875,0.02223956585
0.05320833333,0.022274727
0.05322916667,0.02219729684
0.05325,0.02214606106
0.05327083333,0.02214420773
0.05329166667,0.02209722623
0.0533125,0.02214617841
0.05333333333,0.0221678447
0.05335416667,0.02225125022
0.053375,0.02238227427
0.05339583333,0.02255603857
0.05341666667,0.02272157371
0.0534375,0.0229499843
0.05345833333,0.02309679613
0.05347916667,0.02322458662
0.0535,0.02338305116
0.05352083333,0.02339273505
0.05354166667,0.0234174598
0.0535625,0.02344214916
0.05358333333,0.02343448624
0.05360416667,0.02347323298
0.053625,0.02342469804
0.05364583333,0.0233733803
0.05366666667,0.02331496775
0.0536875,0.02329703234
0.05370833333,0.02328084409
0.05372916667,0.02323982492
0.05375,0.02330560982
0.05377083333,0.02339420095
0.05379166667,0.02346117236
0.0538125,0.02350668423
0.05383333333,0.02357445285
0.05385416667,0.02363570966
0.053875,0.02359430678
0.05389583333,0.02363388985
0.05391666667,0.02357597649
0.0539375,0.02344491147
0.05395833333,0.02330322191
0.05397916667,0.02315877564
0.054,0.02314665355
0.05402083333,0.02311802283
0.05404166667,0.02319007926
0.0540625,0.02333161421
0.05408333333,0.02347525582
0.05410416667,0.02362199686
0.054125,0.02365453169
0.05414583333,0.02376306057
0.05416666667,0.02385652252
0.0541875,0.02381207608
0.05420833333,0.02385159209
0.05422916667,0.0238316711
0.05425,0.02376862802
0.05427083333,0.0235709101
0.05429166667,0.02346230857
0.0543125,0.02338890731
0.05433333333,0.02329272218
0.05435416667,0.02326421626
0.054375,0.02321307175
0.05439583333,0.02321310341
0.05441666667,0.02327536419
0.0544375,0.02335948125
0.05445833333,0.02351681702
0.05447916667,0.02373402938
0.0545,0.02399268374
0.05452083333,0.0242318958
0.05454166667,0.02434866875
0.0545625,0.0244625546
0.05458333333,0.0245645009
0.05460416667,0.02465397865
0.054625,0.02477184869
0.05464583333,0.02481852099
0.05466666667,0.02488048747
0.0546875,0.0249206014
0.05470833333,0.02488230541
0.05472916667,0.02497617528
0.05475,0.02512767166
0.05477083333,0.02532957308
0.05479166667,0.02555692196
0.0548125,0.02568554506
0.05483333333,0.02574817091
0.05485416667,0.02594871633
0.054875,0.02609531023
0.05489583333,0.02631820366
0.05491666667,0.02648982778
0.0549375,0.02653233521
0.05495833333,0.02660576813
0.05497916667,0.02657081001
0.055,0.02656908706
0.05502083333,0.02660177834
0.05504166667,0.02655307949
0.0550625,0.02659348398
0.05508333333,0.02662468702
0.05510416667,0.02672081999
0.055125,0.02684619837
0.05514583333,0.0269741118
0.05516666667,0.02726424113
0.0551875,0.02745549381
0.05520833333,0.0276585035
0.05522916667,0.02783316001
0.05525,0.02789443173
0.05527083333,0.02808485739
0.05529166667,0.02823670954
0.0553125,0.02835144103
0.05533333333,0.02839475684
0.05535416667,0.02833367512
0.055375,0.02828946896
0.05539583333,0.02827281132
0.05541666667,0.02843760885
0.0554375,0.02849514596
0.05545833333,0.0285383705
0.05547916667,0.02863992937
0.0555,0.028695032
0.05552083333,0.02885679901
0.05554166667,0.02896851301
0.0555625,0.02907744981
0.05558333333,0.02919316292
0.05560416667,0.02932666987
0.055625,0.02936468646
0.05564583333,0.02926070802
0.05566666667,0.02919187397
0.0556875,0.02907767892
0.05570833333,0.02893551439
0.05572916667,0.02885375172
0.05575,0.02882267162
0.05577083333,0.02875227667
0.05579166667,0.02879181877
0.0558125,0.02881200612
0.05583333333,0.02899603732
0.05585416667,0.02927400544
0.055875,0.02924274467
0.05589583333,0.02927103266
0.05591666667,0.02932148054
0.0559375,0.02937267907
0.05595833333,0.02936009131
0.05597916667,0.02924012579
0.056,0.02908340283
0.05602083333,0.02892732434
0.05604166667,0.02872745693
0.0560625,0.02848388441
0.05608333333,0.02826361172
0.05610416667,0.02811723575
0.056125,0.02803548612
0.05614583333,0.0279773809
0.05616666667,0.0279256124
0.0561875,0.02788300253
0.05620833333,0.02785605378
0.05622916667,0.02776150964
0.05625,0.0276846569
0.05627083333,0.02759345621
0.05629166667,0.02755596489
0.0563125,0.02744690701
0.05633333333,0.02729798108
0.05635416667,0.02721313015
0.056375,0.02704615146
0.05639583333,0.02696642093
0.05641666667,0.0268405769
0.0564375,0.02691435814
0.05645833333,0.0269717034
0.05647916667,0.02682942897
0.0565,0.02683808841
0.05652083333,0.02678469755
0.05654166667,0.02679879405
0.0565625,0.02672856674
0.05658333333,0.0267310366
0.05660416667,0.02669274621
0.056625,0.02660143003
0.05664583333,0.02652940713
0.05666666667,0.02644374222
0.0566875,0.02643548511
0.05670833333,0.02635282278
0.05672916667,0.02631415799
0.05675,0.02618711442
0.05677083333,0.02611328475
0.05679166667,0.02606988139
0.0568125,0.02589575015
0.05683333333,0.02582444251
0.05685416667,0.02577258646
0.056875,0.02574389055
0.05689583333,0.02574266493
0.05691666667,0.02577644028
0.0569375,0.02568660676
0.05695833333,0.02567554824
0.05697916667,0.02569645643
0.057,0.02560850233
0.05702083333,0.02540668659
0.05704166667,0.02521699108
0.0570625,0.02500537969
0.05708333333,0.02471045032
0.05710416667,0.0245557148
0.057125,0.02428948693
0.05714583333,0.02404084988
0.05716666667,0.02373020537
0.0571875,0.0235331282
0.05720833333,0.02343817055
0.05722916667,0.02326237783
0.05725,0.02329931781
0.05727083333,0.02312135883
0.05729166667,0.02333652973
0.0573125,0.02335304581
0.05733333333,0.02339947969
0.05735416667,0.02322231047
0.057375,0.02280542254
0.05739583333,0.02248242684
0.05741666667,0.0219661817
0.0574375,0.02162826434
0.05745833333,0.02129763365
0.05747916667,0.02091133595
0.0575,0.02058932558
0.05752083333,0.0202316232
0.05754166667,0.01999693736
0.0575625,0.01977925934
0.05758333333,0.01958373934
0.05760416667,0.01940593123
0.057625,0.01934624836
0.05764583333,0.01925253682
0.05766666667,0.01914465427
0.0576875,0.0189204812
0.05770833333,0.01869220845
0.05772916667,0.01847543567
0.05775,0.01807270199
0.05777083333,0.01777997799
0.05779166667,0.01740316488
0.0578125,0.01700968295
0.05783333333,0.01655614004
0.05785416667,0.01608132571
0.057875,0.01566899009
0.05789583333,0.01530852821
0.05791666667,0.0150807146
0.0579375,0.01482076664
0.05795833333,0.01462559775
0.05797916667,0.01449534297
0.058,0.01438963693
0.05802083333,0.01427856926
0.05804166667,0.01417106017
0.0580625,0.01404079981
0.05808333333,0.01392687112
0.05810416667,0.01372729335
0.058125,0.0134383291
0.05814583333,0.01312685292
0.05816666667,0.01275179349
0.0581875,0.01246800367
0.05820833333,0.01206400059
0.05822916667,0.01165596209
0.05825,0.01143264864
0.05827083333,0.01103914995
0.05829166667,0.01074331254
0.0583125,0.0106645599
0.05833333333,0.01076405589
0.05835416667,0.01095334347
0.058375,0.0107951453
0.05839583333,0.01063415781
0.05841666667,0.01074309461
0.0584375,0.01051683258
0.05845833333,0.01016676798
0.05847916667,0.01005332824
0.0585,0.009674094617
0.05852083333,0.009372418746
0.05854166667,0.009141389281
0.0585625,0.009011466987
0.05858333333,0.008795889094
0.05860416667,0.008648240007
0.058625,0.008630781434
0.05864583333,0.008562190458
0.05866666667,0.008568065241
0.0586875,0.008591417223
0.05870833333,0.008558235131
0.05872916667,0.008649811149
0.05875,0.008667570539
0.05877083333,0.008619278669
0.05879166667,0.008596220054
0.0588125,0.008490628563
0.05883333333,0.00847935304
0.05885416667,0.008293556049
0.058875,0.008020926267
0.05889583333,0.007824146189
0.05891666667,0.007574533578
0.0589375,0.007355421782
0.05895833333,0.007030670065
0.05897916667,0.006809250452
0.059,0.006606322713
0.05902083333,0.006407257169
0.05904166667,0.006223399192
0.0590625,0.006053388119
0.05908333333,0.005997967906
0.05910416667,0.005901203491
0.059125,0.00596380746
0.05914583333,0.005936538801
0.05916666667,0.005826579407
0.0591875,0.005727616604
0.05920833333,0.00551011879
0.05922916667,0.005271125585
0.05925,0.00511085242
0.05927083333,0.004765206017
0.05929166667,0.004245581105
0.0593125,0.004258222878
0.05933333333,0.004248470068
0.05935416667,0.003807835281
0.059375,0.003708403092
0.05939583333,0.003594445065
0.05941666667,0.003516698489
0.0594375,0.003431626596
0.05945833333,0.003333856352
0.05947916667,0.003379005939
0.0595,0.003322913544
0.05952083333,0.003306426574
0.05954166667,0.00318160234
0.0595625,0.003108104225
0.05958333333,0.003051797394
0.05960416667,0.00289816549
0.059625,0.002672204748
0.05964583333,0.002420900855
0.05966666667,0.002236571629
0.0596875,0.002035193145
0.05970833333,0.001849983353
0.05972916667,0.001612255699
0.05975,0.001449770061
0.05977083333,0.001334706205
0.05979166667,0.001153691672
0.0598125,0.000994554488
0.05983333333,0.0007727694465
0.05985416667,0.0005764802918
0.059875,0.0003907267819
0.05989583333,8.746108506e-05
0.05991666667,-9.553524433e-05
0.0599375,-0.0004117701319
0.05995833333,-0.0006759786047
0.05997916667,-0.0008775563911
0.06,-0.001203568536
0.06002083333,-0.001544745173
0.06004166667,-0.001965344651
0.0600625,-0.002290183911
0.06008333333,-0.002572842641
0.06010416667,-0.002813048894
0.060125,-0.00301137846
0.06014583333,-0.003162773093
0.06016666667,-0.003343578894
0.0601875,-0.003519838443
0.06020833333,-0.003700881265
0.06022916667,-0.00393644115
0.06025,-0.004190552048
0.06027083333,-0.004465474281
0.06029166667,-0.004654306453
0.0603125,-0.004993103445
0.06033333333,-0.005262428895
0.06035416667,-0.005535757635
0.060375,-0.005892043002
0.06039583333,-0.005997471977
0.06041666667,-0.006225205958
0.0604375,-0.006479921285
0.06045833333,-0.006607735995
0.06047916667,-0.006734692492
0.0605,-0.006786990911
0.06052083333,-0.006862641778
0.06054166667,-0.006922948174
0.0605625,-0.007037157193
0.06058333333,-0.007151788566
0.06060416667,-0.007344557904
0.060625,-0.007578933146
0.06064583333,-0.007726592477
0.06066666667,-0.007860586978
0.0606875,-0.008036980405
0.06070833333,-0.008253571577
0.06072916667,-0.008319152519
0.06075,-0.008414485492
0.06077083333,-0.008513620123
0.06079166667,-0.008622054011
0.0608125,-0.00875621289
0.06083333333,-0.008830267936
0.06085416667,-0.008952787146
0.060875,-0.009085348807
0.06089583333,-0.009204194881
0.06091666667,-0.00933674071
0.0609375,-0.009463232942
0.06095833333,-0.009656841867
0.06097916667,-0.009870492853
0.061,-0.009953922592
0.06102083333,-0.01014925633
0.06104166667,-0.01035595313
0.0610625,-0.01048127562
0.06108333333,-0.01070335507
0.06110416667,-0.01083713304
0.061125,-0.01096909214
0.06114583333,-0.01103338599
0.06116666667,-0.0110810753
0.0611875,-0.01123112347
0.06120833333,-0.01127792522
0.06122916667,-0.01133671775
0.06125,-0.01136392914
0.06127083333,-0.01135448925
0.06129166667,-0.01133495476
0.0613125,-0.0114379162
0.06133333333,-0.01149047725
0.06135416667,-0.01165570691
0.061375,-0.01188128721
0.06139583333,-0.01191237941
0.06141666667,-0.01210238039
0.0614375,-0.01219180692
0.06145833333,-0.01236202754
0.06147916667,-0.01247139368
0.0615,-0.01242799312
0.06152083333,-0.01241935883
0.06154166667,-0.01238870714
0.0615625,-0.01241506357
0.06158333333,-0.01240791567
0.06160416667,-0.01242540497
0.061625,-0.01250833366
0.06164583333,-0.01262171753
0.06166666667,-0.01267402433
0.0616875,-0.01272043493
0.06170833333,-0.01279938128
0.06172916667,-0.01286641136
0.06175,-0.01296947803
0.06177083333,-0.01300837845
0.06179166667,-0.01304453611
0.0618125,-0.01308770105
0.06183333333,-0.01310347021
0.06185416667,-0.01313096005
0.061875,-0.01320266165
0.06189583333,-0.01323518716
0.06191666667,-0.01321504824
0.0619375,-0.01326840743
0.06195833333,-0.01326693036
0.06197916667,-0.01338786539
0.062,-0.01347114332
0.06202083333,-0.01348270662
0.06204166667,-0.01349861268
0.0620625,-0.01344106905
0.06208333333,-0.01352849323
0.06210416667,-0.01365706604
0.062125,-0.01381423604
0.06214583333,-0.01394932158
0.06216666667,-0.01405158732
0.0621875,-0.01406308636
0.06220833333,-0.01407313906
0.06222916667,-0.01410902385
0.06225,-0.01411345787
0.06227083333,-0.01416691858
0.06229166667,-0.01424834225
0.0623125,-0.01437019836
0.06233333333,-0.01437781472
0.06235416667,-0.01438309252
0.062375,-0.01456028409
0.06239583333,-0.01467674505
0.06241666667,-0.01475151163
0.0624375,-0.01485069282
0.06245833333,-0.01495925523
0.06247916667,-0.01508109365
0.0625,-0.01519622747
0.06252083333,-0.01531079225
0.06254166667,-0.01545493864
0.0625625,-0.0156511087
0.06258333333,-0.01580678113
0.06260416667,-0.01587744802
0.062625,-0.01598649845
0.06264583333,-0.01618728228
0.06266666667,-0.01635874249
0.0626875,-0.01650319248
0.06270833333,-0.01665047184
0.06272916667,-0.01680599153
0.06275,-0.01697402075
0.06277083333,-0.01709576696
0.06279166667,-0.01724749617
0.0628125,-0.01734053902
0.06283333333,-0.01745671779
0.06285416667,-0.01764215343
0.062875,-0.01769543253
0.06289583333,-0.01779559068
0.06291666667,-0.01783300191
0.0629375,-0.01774862036
0.06295833333,-0.01770210639
0.06297916667,-0.01766362786
0.063,-0.01761346683
0.06302083333,-0.01758594625
0.06304166667,-0.01758210547
0.0630625,-0.0176067017
0.06308333333,-0.01768617146
0.06310416667,-0.01778504439
0.063125,-0.01783322915
0.06314583333,-0.01789253019
0.06316666667,-0.01799395867
0.0631875,-0.01805383526
0.06320833333,-0.01806439087
0.06322916667,-0.01804775186
0.06325,-0.01801062375
0.06327083333,-0.01796257123
0.06329166667,-0.01783699915
0.0633125,-0.01769203134
0.06333333333,-0.01768571511
0.06335416667,-0.01764922962
0.063375,-0.01759546995
0.06339583333,-0.01765684038
0.06341666667,-0.0177390743
0.0634375,-0.01788565516
0.06345833333,-0.01795320585
0.06347916667,-0.0180065278
0.0635,-0.01817941852
0.06352083333,-0.0184026137
0.06354166667,-0.01856903359
0.0635625,-0.01873154938
0.06358333333,-0.0188429784
0.06360416667,-0.0189332217
0.063625,-0.01899910718
0.06364583333,-0.01901148446
0.06366666667,-0.01911628433
0.0636875,-0.01909256913
0.06370833333,-0.01902703941
0.06372916667,-0.0190484263
0.06375,-0.01898861676
0.06377083333,-0.01905275881
0.06379166667,-0.01900052093
0.0638125,-0.01902735978
0.06383333333,-0.01909722015
0.06385416667,-0.01915446483
0.063875,-0.01926912554
0.06389583333,-0.01933934353
0.06391666667,-0.01947592385
0.0639375,-0.01956731267
0.06395833333,-0.01964549534
0.06397916667,-0.01964777894
0.064,-0.01957819983
0.06402083333,-0.01945492625
0.06404166667,-0.0193493329
0.0640625,-0.0192939043
0.06408333333,-0.01917077042
0.06410416667,-0.01912758872
0.064125,-0.01918626949
0.06414583333,-0.01924601197
0.06416666667,-0.01932058297
0.0641875,-0.01943878271
0.06420833333,-0.01953015849
0.06422916667,-0.01960119419
0.06425,-0.01966674626
0.06427083333,-0.01973986998
0.06429166667,-0.01970883645
0.0643125,-0.01958832145
0.06433333333,-0.0194532983
0.06435416667,-0.01939501613
0.064375,-0.01938905381
0.06439583333,-0.01925364137
0.06441666667,-0.01920634694
0.0644375,-0.01919104159
0.06445833333,-0.01918172836
0.06447916667,-0.01922827587
0.0645,-0.01926423982
0.06452083333,-0.01944400929
0.06454166667,-0.01970775798
0.0645625,-0.01991363615
0.06458333333,-0.020124387
0.06460416667,-0.0202936288
0.064625,-0.02048196271
0.06464583333,-0.02057213709
0.06466666667,-0.02058048733
0.0646875,-0.02059856243
0.06470833333,-0.02063547261
0.06472916667,-0.02072694339
0.06475,-0.02070414461
0.06477083333,-0.02072092332
0.06479166667,-0.02079608478
0.0648125,-0.02082110569
0.06483333333,-0.02088534832
0.06485416667,-0.02080721781
0.064875,-0.02106767707
0.06489583333,-0.02126903087
0.06491666667,-0.02131202258
0.0649375,-0.02153269202
0.06495833333,-0.0216219984
0.06497916667,-0.02183924057
0.065,-0.02200455405
0.06502083333,-0.02207463793
0.06504166667,-0.02224382572
0.0650625,-0.02229778841
0.06508333333,-0.02239533328
0.06510416667,-0.02243109234
0.065125,-0.02241107263
0.06514583333,-0.02245757729
0.06516666667,-0.02250160649
0.0651875,-0.02267015167
0.06520833333,-0.02285352908
0.06522916667,-0.02303481475
0.06525,-0.02322806604
0.06527083333,-0.02346947603
0.06529166667,-0.02363220975
0.0653125,-0.02375998162
0.06533333333,-0.02384011447
0.06535416667,-0.02396992408
0.065375,-0.0241008848
0.06539583333,-0.02407928556
0.06541666667,-0.02410842478
0.0654375,-0.02400578745
0.06545833333,-0.02392562479
0.06547916667,-0.02391486987
0.0655,-0.02381127141
0.06552083333,-0.02375648543
0.06554166667,-0.02375716902
0.0655625,-0.02376267686
0.06558333333,-0.02378637902
0.06560416667,-0.02384068631
0.065625,-0.02396617085
0.06564583333,-0.02406192198
0.06566666667,-0.02415148914
0.0656875,-0.0242225416
0.06570833333,-0.0242039226
0.06572916667,-0.0242118258
0.06575,-0.02420830354
0.06577083333,-0.02419846691
0.06579166667,-0.02420920879
0.0658125,-0.02413273603
0.06583333333,-0.02403010987
0.06585416667,-0.02400418371
0.065875,-0.02407085896
0.06589583333,-0.02410323545
0.06591666667,-0.02415534668
0.0659375,-0.02421454154
0.06595833333,-0.02425423078
0.06597916667,-0.02425213344
0.066,-0.02438944019
0.06602083333,-0.02438438497
0.06604166667,-0.02439578809
0.0660625,-0.02434042096
0.06608333333,-0.02427679114
0.06610416667,-0.02424468659
0.066125,-0.02410571836
0.06614583333,-0.02410675958
0.06616666667,-0.02399882302
0.0661875,-0.02385927737
0.06620833333,-0.02377592027
0.06622916667,-0.02356560715
0.06625,-0.02352447622
0.06627083333,-0.02342618629
0.06629166667,-0.02333260886
0.0663125,-0.02332955413
0.06633333333,-0.02327239513
0.06635416667,-0.0232477244
0.066375,-0.02321731299
0.06639583333,-0.02317835763
0.06641666667,-0.02312607318
0.0664375,-0.02314732224
0.06645833333,-0.02311981097
0.06647916667,-0.02310421132
0.0665,-0.02305763215
0.06652083333,-0.02291780338
0.06654166667,-0.02276131138
0.0665625,-0.02265753783
0.06658333333,-0.02251145057
0.06660416667,-0.02230206877
0.066625,-0.02214579284
0.06664583333,-0.0220177155
0.06666666667,-0.02196570486
0.0666875,-0.02191017941
0.06670833333,-0.02181330323
0.06672916667,-0.02178838849
0.06675,-0.02175451629
0.06677083333,-0.0217194967
0.06679166667,-0.02168683894
0.0668125,-0.02153867111
0.06683333333,-0.02142802998
0.06685416667,-0.02132919244
0.066875,-0.02104714699
0.06689583333,-0.02074387483
0.06691666667,-0.02044482902
0.0669375,-0.0203658957
0.06695833333,-0.02023760043
0.06697916667,-0.01979780942
0.067,-0.01982288435
0.06702083333,-0.01976545341
0.06704166667,-0.01973059215
0.0670625,-0.01993298903
0.06708333333,-0.01960813254
0.06710416667,-0.01964377798
0.067125,-0.01988092996
0.06714583333,-0.01959096082
0.06716666667,-0.01929060929
0.0671875,-0.01907140948
0.06720833333,-0.01889992878
0.06722916667,-0.01858735457
0.06725,-0.01817781851
0.06727083333,-0.01790474914
0.06729166667,-0.01759650931
0.0673125,-0.01737140864
0.06733333333,-0.0171071589
0.06735416667,-0.01676059328
0.067375,-0.01662251912
0.06739583333,-0.01660521701
0.06741666667,-0.01652608998
0.0674375,-0.01652113907
0.06745833333,-0.01647965424
0.06747916667,-0.01630334742
0.0675,-0.01617210358
0.06752083333,-0.01595599949
0.06754166667,-0.01568898931
0.0675625,-0.01537667401
0.06758333333,-0.01493175048
0.06760416667,-0.01445633452
0.067625,-0.01399550773
0.06764583333,-0.01363306772
0.06766666667,-0.01325568743
0.0676875,-0.01288343873
0.06770833333,-0.01260259934
0.06772916667,-0.0123771131
0.06775,-0.01221005619
0.06777083333,-0.01197710447
0.06779166667,-0.01177092828
0.0678125,-0.01161655597
0.06783333333,-0.01144581288
0.06785416667,-0.01129796822
0.067875,-0.01103666425
0.06789583333,-0.01071715355
0.06791666667,-0.01036956068
0.0679375,-0.00997184962
0.06795833333,-0.009528817609
0.06797916667,-0.009169027209
0.068,-0.00881876424
0.06802083333,-0.008519520052
0.06804166667,-0.008288640529
0.0680625,-0.008097046055
0.06808333333,-0.008035128936
0.06810416667,-0.007990484126
0.068125,-0.008074185811
0.06814583333,-0.008064850233
0.06816666667,-0.008094362915
0.0681875,-0.008039787412
0.06820833333,-0.007871872745
0.06822916667,-0.007826608606
0.06825,-0.007385523058
0.06827083333,-0.007065976504
0.06829166667,-0.006798931397
0.0683125,-0.006355537102
0.06833333333,-0.005918362644
0.06835416667,-0.005526745692
0.068375,-0.005197761115
0.06839583333,-0.004851202946
0.06841666667,-0.004712547641
0.0684375,-0.004463854246
0.06845833333,-0.004316193983
0.06847916667,-0.004342208616
0.0685,-0.004301127046
0.06852083333,-0.004272704013
0.06854166667,-0.004244286567
0.0685625,-0.004157887306
0.06858333333,-0.004009905271
0.06860416667,-0.003878603689
0.068625,-0.003655270673
0.06864583333,-0.003426593263
0.06866666667,-0.003229284892
0.0686875,-0.003033403773
0.06870833333,-0.002908554161
0.06872916667,-0.002657787176
0.06875,-0.002508413978
0.06877083333,-0.002438923111
0.06879166667,-0.002375188284
0.0688125,-0.002393050352
0.06883333333,-0.002351521282
0.06885416667,-0.002347850241
0.068875,-0.002315268386
0.06889583333,-0.002227660036
0.06891666667,-0.00203864486
0.0689375,-0.001801516162
0.06895833333,-0.001570581691
0.06897916667,-0.001227392
0.069,-0.0009162265924
0.06902083333,-0.0005889716558
0.06904166667,-0.0003750071628
0.0690625,-0.0002091597999
0.06908333333,1.608580351e-05
0.06910416667,0.0001008267282
0.069125,0.0001880818745
0.06914583333,0.0002587438794
0.06916666667,0.0002752466826
0.0691875,0.000323565444
0.06920833333,0.0003534433199
0.06922916667,0.0003492722753
0.06925,0.0003786389716
0.06927083333,0.00046983012
0.06929166667,0.0005508540198
0.0693125,0.000721055083
0.06933333333,0.0009246669943
0.06935416667,0.001134112012
0.069375,0.001419589389
0.06939583333,0.00150992407
0.06941666667,0.001729264739
0.0694375,0.002106510801
0.06945833333,0.002141949721
0.06947916667,0.002102183178
0.0695,0.002289667027
0.06952083333,0.002429596614
0.06954166667,0.00239473721
0.0695625,0.002484950935
0.06958333333,0.002642089501
0.06960416667,0.00275633228
0.069625,0.002981409431
0.06964583333,0.003278071061
0.06966666667,0.003589775879
0.0696875,0.003852925729
0.06970833333,0.004120795522
0.06972916667,0.004379183985
0.06975,0.004588845652
0.06977083333,0.004769864958
0.06979166667,0.004925605841
0.0698125,0.005086456425
0.06983333333,0.005225559697
0.06985416667,0.005296392366
0.069875,0.00531597808
0.06989583333,0.005349444691
0.06991666667,0.00541294599
0.0699375,0.005504116882
0.06995833333,0.005616763141
0.06997916667,0.005799849052
0.07,0.005975486711
0.07002083333,0.006112776231
0.07004166667,0.006302328315
0.0700625,0.006426959764
0.07008333333,0.006641975604
0.07010416667,0.006897202693
0.070125,0.007079439703
0.07014583333,0.007312398404
0.07016666667,0.007461292669
0.0701875,0.007633968256
0.07020833333,0.007779649459
0.07022916667,0.007961616851
0.07025,0.008224070072
0.07027083333,0.008377019316
0.07029166667,0.008567521349
0.0703125,0.008783276193
0.07033333333,0.008905804716
0.07035416667,0.009114740416
0.070375,0.009362884797
0.07039583333,0.009621989913
0.07041666667,0.009807585739
0.0704375,0.009988642298
0.07045833333,0.01016991865
0.07047916667,0.01026564278
0.0705,0.01032791194
0.07052083333,0.01035835501
0.07054166667,0.01037595421
0.0705625,0.01038754359
0.07058333333,0.01033121627
0.07060416667,0.01028413046
0.070625,0.01025791466
0.07064583333,0.01026840135
0.07066666667,0.01032589283
0.0706875,0.01031263918
0.07070833333,0.01039567869
0.07072916667,0.01048437133
0.07075,0.01060745958
0.07077083333,0.01081421878
0.07079166667,0.01097449102
0.0708125,0.01117203478
0.07083333333,0.01133184601
0.07085416667,0.0114509305
0.070875,0.01157717034
0.07089583333,0.01164212264
0.07091666667,0.01171909366
0.0709375,0.01177907921
0.07095833333,0.01183205098
0.07097916667,0.01189323235
0.071,0.01196482498
0.07102083333,0.01203322969
0.07104166667,0.01205979008
0.0710625,0.01218255144
0.07108333333,0.01226745546
0.07110416667,0.0123145245
0.071125,0.01241288893
0.07114583333,0.01247795951
0.07116666667,0.01256932132
0.0711875,0.01262096222
0.07120833333,0.0126670124
0.07122916667,0.0126758581
0.07125,0.01261963043
0.07127083333,0.01256109122
0.07129166667,0.01254177466
0.0713125,0.01253527962
0.07133333333,0.01249762438
0.07135416667,0.01254350413
0.071375,0.0125543559
0.07139583333,0.01262538228
0.07141666667,0.01273017563
0.0714375,0.01269684453
0.07145833333,0.01282717101
0.07147916667,0.01301373541
0.0715,0.01319912821
0.07152083333,0.01342231873
0.07154166667,0.01345298067
0.0715625,0.01349523384
0.07158333333,0.0135436086
0.07160416667,0.01351668965
0.071625,0.01358618122
0.07164583333,0.01361573581
0.07166666667,0.01362005528
0.0716875,0.01362849306
0.07170833333,0.01363269519
0.07172916667,0.01365680806
0.07175,0.01370360516
0.07177083333,0.01382846106
0.07179166667,0.01396521088
0.0718125,0.01419886108
0.07183333333,0.01444185246
0.07185416667,0.0146043459
0.071875,0.01480187476
0.07189583333,0.01479765028
0.07191666667,0.01480895746
0.0719375,0.01484670583
0.07195833333,0.01478932705
0.07197916667,0.01482383907
0.072,0.01478322595
0.07202083333,0.01476208959
0.07204166667,0.01474630181
0.0720625,0.01463551354
0.07208333333,0.01457123086
0.07210416667,0.01451903954
0.072125,0.01449588314
0.07214583333,0.01453848369
0.07216666667,0.01458939351
0.0721875,0.01469312981
0.07220833333,0.01482730452
0.07222916667,0.0149643952
0.07225,0.01510732714
0.07227083333,0.0151906386
0.07229166667,0.01524010766
0.0723125,0.015305195
0.07233333333,0.01532416418
0.07235416667,0.01538669411
0.072375,0.01536492538
0.07239583333,0.01520418283
0.07241666667,0.01519231591
0.0724375,0.01521189045
0.07245833333,0.01522377413
0.07247916667,0.01527297869
0.0725,0.01531523652
0.07252083333,0.01535015367
0.07254166667,0.01543162297
0.0725625,0.01556752156
0.07258333333,0.01563167199
0.07260416667,0.01569797657
0.072625,0.01580417529
0.07264583333,0.0159445256
0.07266666667,0.016031323
0.0726875,0.01600116678
0.07270833333,0.01596962474
0.07272916667,0.01588909142
0.07275,0.01583258249
0.07277083333,0.01577226445
0.07279166667,0.01569518633
0.0728125,0.01563988999
0.07283333333,0.01563793235
0.07285416667,0.01567506604
0.072875,0.01572262682
0.07289583333,0.01582277752
0.07291666667,0.01588694751
0.0729375,0.01596346125
0.07295833333,0.01603452303
0.07297916667,0.0160878785
0.073,0.01618942618
0.07302083333,0.01628499292
0.07304166667,0.01635638438
0.0730625,0.01640700176
0.07308333333,0.01641510613
0.07310416667,0.01635451056
0.073125,0.01630881429
0.07314583333,0.01630410366
0.07316666667,0.0162942186
0.0731875,0.01629895903
0.07320833333,0.01630701497
0.07322916667,0.01634915359
0.07325,0.01644216664
0.07327083333,0.01654204726
0.07329166667,0.0166271925
0.0733125,0.01676676422
0.07333333333,0.01684299298
0.07335416667,0.01680436358
0.073375,0.01681948639
0.07339583333,0.01673225872
0.07341666667,0.01667024009
0.0734375,0.01668034494
0.07345833333,0.01662631519
0.07347916667,0.0166987814
0.0735,0.01665964723
0.07352083333,0.01658175513
0.07354166667,0.01659029908
0.0735625,0.01658716798
0.07358333333,0.01664950885
0.07360416667,0.01671918295
0.073625,0.01689394191
0.07364583333,0.01707338169
0.07366666667,0.01720741577
0.0736875,0.01734611206
0.07370833333,0.01740647852
0.07372916667,0.01746848412
0.07375,0.017488271
0.07377083333,0.01751858741
0.07379166667,0.01755730063
0.0738125,0.01754686981
0.07383333333,0.017539002
0.07385416667,0.01753890887
0.073875,0.01747023128
0.07389583333,0.01746052317
0.07391666667,0.01743262634
0.0739375,0.01743411273
0.07395833333,0.01750436984
0.07397916667,0.01752434298
0.074,0.01756850444
0.07402083333,0.01762810349
0.07404166667,0.01770831645
0.0740625,0.01779773459
0.07408333333,0.01785648055
0.07410416667,0.01790775172
0.074125,0.0179408323
0.07414583333,0.01795622334
0.07416666667,0.01789954491
0.0741875,0.01784282923
0.07420833333,0.01782537252
0.07422916667,0.01780546829
0.07425,0.01778679341
0.07427083333,0.01774578542
0.07429166667,0.01776530035
0.0743125,0.01782721281
0.07433333333,0.01788537391
0.07435416667,0.01800319552
0.074375,0.01814755984
0.07439583333,0.01828086562
0.07441666667,0.01837157086
0.0744375,0.0184694659
0.07445833333,0.01857260987
0.07447916667,0.01861845143
0.0745,0.0187724717
0.07452083333,0.01877800561
0.07454166667,0.01878542826
0.0745625,0.01888601854
0.07458333333,0.01888703927
0.07460416667,0.01902677864
0.074625,0.01908824593
0.07464583333,0.01914298907
0.07466666667,0.0192965921
0.0746875,0.01934493519
0.07470833333,0.01943405159
0.07472916667,0.01952378638
0.07475,0.01957563311
0.07477083333,0.01964131556
0.07479166667,0.01972726174
0.0748125,0.01978307404
0.07483333333,0.01981662214
0.07485416667,0.01978226379
0.074875,0.01974698342
0.07489583333,0.01976186782
0.07491666667,0.01971733011
0.0749375,0.0197689943
0.07495833333,0.01985317096
0.07497916667,0.01990891621
0.075,0.02000834979
0.07502083333,0.02007726952
0.07504166667,0.02017748542
0.0750625,0.02036953345
0.07508333333,0.02051274292
0.07510416667,0.02061676979
0.075125,0.02076103352
0.07514583333,0.02077950537
0.07516666667,0.02073186822
0.0751875,0.02071238682
0.07520833333,0.02065335773
0.07522916667,0.02062938362
0.07525,0.02058228105
0.07527083333,0.02056781575
0.07529166667,0.0206034407
0.0753125,0.02069974877
0.07533333333,0.02080475539
0.07535416667,0.02088134363
0.075375,0.02101805806
0.07539583333,0.021030562
0.07541666667,0.02108530886
0.0754375,0.02117485926
0.07545833333,0.02114847116
0.07547916667,0.02124500088
0.0755,0.02122497559
0.07552083333,0.02111662365
0.07554166667,0.02105904743
0.0755625,0.02090787515
0.07558333333,0.02082114667
0.07560416667,0.02070710808
0.075625,0.02065015025
0.07564583333,0.02069311216
0.07566666667,0.02074505948
0.0756875,0.02083531953
0.07570833333,0.02096294612
0.07572916667,0.02104190923
0.07575,0.02120124549
0.07577083333,0.02138845436
0.07579166667,0.02149570547
0.0758125,0.02157800086
0.07583333333,0.02158244513
0.07585416667,0.02157223597
0.075875,0.02155961283
0.07589583333,0.02151956968
0.07591666667,0.02143558301
0.0759375,0.02132204175
0.07595833333,0.02120186388
0.07597916667,0.0210684482
0.076,0.02095277607
0.07602083333,0.02082458884
0.07604166667,0.02075435035
0.0760625,0.02073199674
0.07608333333,0.02072205767
0.07610416667,0.02079107799
0.076125,0.02082185447
0.07614583333,0.02091658115
0.07616666667,0.02096336521
0.0761875,0.02092667669
0.07620833333,0.02092791721
0.07622916667,0.0207915958
0.07625,0.02071863413
0.07627083333,0.02062132582
0.07629166667,0.02049082518
0.0763125,0.02053480037
0.07633333333,0.02044848539
0.07635416667,0.02038650587
0.076375,0.02046393044
0.07639583333,0.02042905241
0.07641666667,0.02050300501
0.0764375,0.02055423893
0.07645833333,0.02055525221
0.07647916667,0.02065474726
0.0765,0.02064441517
0.07652083333,0.02068319172
0.07654166667,0.02068488114
0.0765625,0.02050609887
0.07658333333,0.0204358045
0.07660416667,0.0203129109
0.076625,0.02017792873
0.07664583333,0.02000581287
0.07666666667,0.01983940601
0.0766875,0.01979035884
0.07670833333,0.01962729916
0.07672916667,0.01949554309
0.07675,0.01934441552
0.07677083333,0.0192596335
0.07679166667,0.0192158781
0.0768125,0.01907553338
0.07683333333,0.01903316565
0.07685416667,0.01896518283
0.076875,0.0188547764
0.07689583333,0.01882252283
0.07691666667,0.01867350005
0.0769375,0.01848701574
0.07695833333,0.01834881864
0.07697916667,0.01813749038
0.077,0.01797766984
0.07702083333,0.01777059026
0.07704166667,0.01762260124
0.0770625,0.0175920967
0.07708333333,0.01750763878
0.07710416667,0.01752553508
0.077125,0.01741022244
0.07714583333,0.01743350178
0.07716666667,0.01754094288
0.0771875,0.0173908174
0.07720833333,0.01742765121
0.07722916667,0.0172746405
0.07725,0.01714473218
0.07727083333,0.01705504954
0.07729166667,0.01655974053
0.0773125,0.01640203223
0.07733333333,0.01627432555
0.07735416667,0.01596596837
0.077375,0.0157857649
0.07739583333,0.0156086646
0.07741666667,0.01543577574
0.0774375,0.01528157666
0.07745833333,0.01511686202
0.07747916667,0.01497608703
0.0775,0.01489385683
0.07752083333,0.01481880806
0.07754166667,0.01459795609
0.0775625,0.01440393366
0.07758333333,0.01416007802
0.07760416667,0.01388035901
0.077625,0.01360885985
0.07764583333,0.01324465871
0.07766666667,0.01290544495
0.0776875,0.01259515993
0.07770833333,0.01232234761
0.07772916667,0.01209673192
0.07775,0.01188778691
0.07777083333,0.01176341344
0.07779166667,0.01168062538
0.0778125,0.01159691066
0.07783333333,0.01146823354
0.07785416667,0.01132004056
0.077875,0.01119531412
0.07789583333,0.01107869484
0.07791666667,0.01091829035
0.0779375,0.0106561482
0.07795833333,0.01030993834
0.07797916667,0.009898755699
0.078,0.00956339296
0.07802083333,0.009253665805
0.07804166667,0.008908569813
0.0780625,0.008666358888
0.07808333333,0.008388223127
0.07810416667,0.008198665455
0.078125,0.00801107008
0.07814583333,0.007734671235
0.07816666667,0.007672625594
0.0781875,0.007522757631
0.07820833333,0.00741245551
0.07822916667,0.007422166876
0.07825,0.007289496716
0.07827083333,0.007205667906
0.07829166667,0.006916051731
0.0783125,0.006713527255
0.07833333333,0.006471537985
0.07835416667,0.006023415364
0.078375,0.005814405158
0.07839583333,0.005533293821
0.07841666667,0.005400318652
0.0784375,0.00532592088
0.07845833333,0.005150902085
0.07847916667,0.005238070153
0.0785,0.005206583068
0.07852083333,0.005175737664
0.07854166667,0.005223661661
0.0785625,0.005114473868
0.07858333333,0.005010442808
0.07860416667,0.004897006787
0.078625,0.004716012627
0.07864583333,0.004508004524
0.07866666667,0.004260688089
0.0786875,0.004012973979
0.07870833333,0.0037469659
0.07872916667,0.003429950215
0.07875,0.003137353109
0.07877083333,0.002972403076
0.07879166667,0.002841791371
0.0788125,0.002709299093
0.07883333333,0.00261598872
0.07885416667,0.002514227759
0.078875,0.002458196599
0.07889583333,0.002352781594
0.07891666667,0.00226032827
0.0789375,0.00215152977
0.07895833333,0.001931582578
0.07897916667,0.001811471186
0.079,0.00154696987
0.07902083333,0.001324090641
0.07904166667,0.001171423355
0.0790625,0.001026295475
0.07908333333,0.0009779646061
0.07910416667,0.0008516727248
0.079125,0.0008222161559
0.07914583333,0.0007665542653
0.07916666667,0.0006891322555
0.0791875,0.0007459196495
0.07920833333,0.0007178615779
0.07922916667,0.0007366458885
0.07925,0.0006837057881
0.07927083333,0.0005700386828
0.07929166667,0.0004550995072
0.0793125,0.0001798673766
0.07933333333,-5.843339022e-05
0.07935416667,-0.0003130560508
0.079375,-0.0005331985885
0.07939583333,-0.0007798272418
0.07941666667,-0.001115337247
0.0794375,-0.001224860665
0.07945833333,-0.001455891063
0.07947916667,-0.001615940826
0.0795,-0.001656705164
0.07952083333,-0.001789387199
0.07954166667,-0.00181143533
0.0795625,-0.001870107022
0.07958333333,-0.001860175165
0.07960416667,-0.002002584282
0.079625,-0.002204969525
0.07964583333,-0.002301277127
0.07966666667,-0.002578857355
0.0796875,-0.002724915044
0.07970833333,-0.002938634716
0.07972916667,-0.003151728073
0.07975,-0.003281622194
0.07977083333,-0.003500323743
0.07979166667,-0.00366632943
0.0798125,-0.00385135808
0.07983333333,-0.004012719728
0.07985416667,-0.004140987992
0.079875,-0.004279046785
0.07989583333,-0.004447069019
0.07991666667,-0.004581443965
0.0799375,-0.004744245205
0.07995833333,-0.004927780945
0.07997916667,-0.005052451044
0.08,-0.005231048912
0.08002083333,-0.005432071164
0.08004166667,-0.005659793504
0.0800625,-0.005905890372
0.08008333333,-0.006108400412
0.08010416667,-0.00627885852
0.080125,-0.006465981249
0.08014583333,-0.006632727571
0.08016666667,-0.006777678151
0.0801875,-0.006928014569
0.08020833333,-0.007032594644
0.08022916667,-0.007169961464
0.08025,-0.007266154978
0.08027083333,-0.007346692495
0.08029166667,-0.007428070996
0.0803125,-0.007582518738
0.08033333333,-0.007766001392
0.08035416667,-0.007926932536
0.080375,-0.008128949441
0.08039583333,-0.008254309185
0.08041666667,-0.008404830471
0.0804375,-0.008553459309
0.08045833333,-0.008696482517
0.08047916667,-0.008858460933
0.0805,-0.008994404227
0.08052083333,-0.009189356118
0.08054166667,-0.009287188761
0.0805625,-0.009397427551
0.08058333333,-0.009500370361
0.08060416667,-0.009540471248
0.080625,-0.009644159116
0.08064583333,-0.009711317718
0.08066666667,-0.009828632697
0.0806875,-0.009985084645
0.08070833333,-0.01012911927
0.08072916667,-0.01029091235
0.08075,-0.01035590097
0.08077083333,-0.01045484934
0.08079166667,-0.01060065161
0.0808125,-0.01062532887
0.08083333333,-0.01069674175
0.08085416667,-0.01076603588
0.080875,-0.01079121139
0.08089583333,-0.01092228014
0.08091666667,-0.01094967127
0.0809375,-0.01099257544
0.08095833333,-0.01108921226
0.08097916667,-0.01114739012
0.081,-0.01128833368
0.08102083333,-0.01135937031
0.08104166667,-0.01143827476
0.0810625,-0.01157648861
0.08108333333,-0.0116509255
0.08110416667,-0.01175050158
0.081125,-0.01186324283
0.08114583333,-0.0119574042
0.08116666667,-0.01200992893
0.0811875,-0.01204433758
0.08120833333,-0.01206597872
0.08122916667,-0.0120726563
0.08125,-0.01209712867
0.08127083333,-0.0121147586
0.08129166667,-0.01222020946
0.0813125,-0.01226854324
0.08133333333,-0.01225930266
0.08135416667,-0.01234766282
0.081375,-0.01236036792
0.08139583333,-0.01236004382
0.08141666667,-0.01241394412
0.0814375,-0.01240726188
0.08145833333,-0.0124673238
0.08147916667,-0.01253529172
0.0815,-0.01254557259
0.08152083333,-0.01258745883
0.08154166667,-0.01254370529
0.0815625,-0.01251717191
0.08158333333,-0.01254038699
0.08160416667,-0.01250100601
0.081625,-0.01250506286
0.08164583333,-0.01262507867
0.08166666667,-0.0126930913
0.0816875,-0.01276286598
0.08170833333,-0.01290271245
0.08172916667,-0.01300188806
0.08175,-0.01308389101
0.08177083333,-0.01310679503
0.08179166667,-0.01316170581
0.0818125,-0.01322911587
0.08183333333,-0.01328148134
0.08185416667,-0.01338900626
0.081875,-0.01341731101
0.08189583333,-0.01342732925
0.08191666667,-0.01343919337
0.0819375,-0.01342159323
0.08195833333,-0.0134298699
0.08197916667,-0.0134790726
0.082,-0.01357358601
0.08202083333,-0.01362513658
0.08204166667,-0.01364710182
0.0820625,-0.01375103276
0.08208333333,-0.01388774905
0.08210416667,-0.01396583579
0.082125,-0.01402287744
0.08214583333,-0.01409389172
0.08216666667,-0.01414520852
0.0821875,-0.01414324809
0.08220833333,-0.01411216147
0.08222916667,-0.01413561497
0.08225,-0.01411114912
0.08227083333,-0.01411923021
0.08229166667,-0.0141933281
0.0823125,-0.01425885037
0.08233333333,-0.01432930212
0.08235416667,-0.01436316781
0.082375,-0.01440975443
0.08239583333,-0.01452797931
0.08241666667,-0.0146454731
0.0824375,-0.01475654356
0.08245833333,-0.01490853541
0.08247916667,-0.01498421375
0.0825,-0.0150251044
0.08252083333,-0.01508481149
0.08254166667,-0.01511621661
0.0825625,-0.01518106088
0.08258333333,-0.01526858285
0.08260416667,-0.01533866115
0.082625,-0.01538370922
0.08264583333,-0.01546134055
0.08266666667,-0.0154669378
0.0826875,-0.01541897189
0.08270833333,-0.01542840991
0.08272916667,-0.01544662844
0.08275,-0.0155522516
0.08277083333,-0.01564519666
0.08279166667,-0.01574322768
0.0828125,-0.01583488658
0.08283333333,-0.01587436907
0.08285416667,-0.01592806354
0.082875,-0.01589129306
0.08289583333,-0.01586740091
0.08291666667,-0.01583137549
0.0829375,-0.01580356993
0.08295833333,-0.01579068229
0.08297916667,-0.01574346609
0.083,-0.01580407843
0.08302083333,-0.01584400982
0.08304166667,-0.0158927124
0.0830625,-0.01600620709
0.08308333333,-0.01606186666
0.08310416667,-0.01610102877
0.083125,-0.0161966309
0.08314583333,-0.01626596041
0.08316666667,-0.01634220406
0.0831875,-0.01641573198
0.08320833333,-0.01635118388
0.08322916667,-0.01638315618
0.08325,-0.01636745222
0.08327083333,-0.01624570601
0.08329166667,-0.01621904783
0.0833125,-0.01614200138
0.08333333333,-0.01611777768
0.08335416667,-0.01604266278
0.083375,-0.01594259031
0.08339583333,-0.01600146852
0.08341666667,-0.01599930786
0.0834375,-0.01608537138
0.08345833333,-0.01620493084
0.08347916667,-0.01623718627
0.0835,-0.01630618609
0.08352083333,-0.01631482318
0.08354166667,-0.01633369736
0.0835625,-0.01636746339
0.08358333333,-0.01630627923
0.08360416667,-0.01630838215
0.083625,-0.01630072109
0.08364583333,-0.01627698541
0.08366666667,-0.01630272157
0.0836875,-0.01626007445
0.08370833333,-0.01625008695
0.08372916667,-0.01631360315
0.08375,-0.01638573967
0.08377083333,-0.01648606174
0.08379166667,-0.01656473614
0.0838125,-0.01663630083
0.08383333333,-0.01671800949
0.08385416667,-0.01681724936
0.083875,-0.01684132777
0.08389583333,-0.01678976975
0.08391666667,-0.01676801033
0.0839375,-0.01673054509
0.08395833333,-0.01668814942
0.08397916667,-0.01667830721
0.084,-0.01668731309
0.08402083333,-0.01676291972
0.08404166667,-0.01681842469
0.0840625,-0.01688951254
0.08408333333,-0.01698197052
0.08410416667,-0.0170843862
0.084125,-0.01719618961
0.08414583333,-0.0172849074
0.08416666667,-0.01738329791
0.0841875,-0.0174620375
0.08420833333,-0.01752798446
0.08422916667,-0.01757889614
0.08425,-0.01760121249
0.08427083333,-0.01765808649
0.08429166667,-0.01760329679
0.0843125,-0.01754678786
0.08433333333,-0.01750876568
0.08435416667,-0.01744791493
0.084375,-0.01756907441
0.08439583333,-0.01764770225
0.08441666667,-0.01766064391
0.0844375,-0.01778944954
0.08445833333,-0.01789208502
0.08447916667,-0.0179891102
0.0845,-0.01806632988
0.08452083333,-0.01817246899
0.08454166667,-0.01827296056
0.0845625,-0.01833241247
0.08458333333,-0.01841711812
0.08460416667,-0.01848852821
0.084625,-0.0185967423
0.08464583333,-0.01865760796
0.08466666667,-0.01863374747
0.0846875,-0.01873530634
0.08470833333,-0.0187580213
0.08472916667,-0.0187429674
0.08475,-0.01885142922
0.08477083333,-0.01898338646
0.08479166667,-0.01911433786
0.0848125,-0.01925698482
0.08483333333,-0.01939416677
0.08485416667,-0.01952539384
0.084875,-0.01963198557
0.08489583333,-0.01973848231
0.08491666667,-0.01992262527
0.0849375,-0.02008587681
0.08495833333,-0.02010219172
0.08497916667,-0.02014183626
0.085,-0.02016432397
0.08502083333,-0.02015343495
0.08504166667,-0.02019765601
0.0850625,-0.02027294226
0.08508333333,-0.02038404532
0.08510416667,-0.02050163969
0.085125,-0.02067549527
0.08514583333,-0.02079351246
0.08516666667,-0.02092052251
0.0851875,-0.02111679874
0.08520833333,-0.02119317278
0.08522916667,-0.0213507954
0.08525,-0.0214180667
0.08527083333,-0.02144689113
0.08529166667,-0.02152676694
0.0853125,-0.02135092765
0.08533333333,-0.02126870304
0.08535416667,-0.02124996111
0.085375,-0.02116935886
0.08539583333,-0.02116170526
0.08541666667,-0.0211937502
0.0854375,-0.02132524736
0.08545833333,-0.02142726444
0.08547916667,-0.02149068005
0.0855,-0.0215665549
0.08552083333,-0.02166110277
0.08554166667,-0.02175375074
0.0855625,-0.02183923684
0.08558333333,-0.02194197848
0.08560416667,-0.02195901051
0.085625,-0.02200356126
0.08564583333,-0.02198313735
0.08566666667,-0.02190441079
0.0856875,-0.02195930481
0.08570833333,-0.02193988673
0.08572916667,-0.02197341621
0.08575,-0.02205755748
0.08577083333,-0.02209425531
0.08579166667,-0.02222986147
0.0858125,-0.02230422944
0.08583333333,-0.02236832492
0.08585416667,-0.02251739427
0.085875,-0.02258494124
0.08589583333,-0.02265952155
0.08591666667,-0.02270278707
0.0859375,-0.02270391956
0.08595833333,-0.02276827767
0.08597916667,-0.02277646214
0.086,-0.02270857431
0.08602083333,-0.02264871448
0.08604166667,-0.02256093547
0.0860625,-0.02247015946
0.08608333333,-0.02246416733
0.08610416667,-0.02243715152
0.086125,-0.02241160348
0.08614583333,-0.02246330306
0.08616666667,-0.0224226974
0.0861875,-0.02246680669
0.08620833333,-0.02256513014
0.08622916667,-0.02253659628
0.08625,-0.02256023511
0.08627083333,-0.02253064327
0.08629166667,-0.02245416306
0.0863125,-0.022400463
0.08633333333,-0.02229451947
0.08635416667,-0.02217764221
0.086375,-0.02208893001
0.08639583333,-0.02195334062
0.08641666667,-0.02183198929
0.0864375,-0.02181789652
0.08645833333,-0.02178111672
0.08647916667,-0.02171120048
0.0865,-0.02165360563
0.08652083333,-0.02159243077
0.08654166667,-0.02155459113
0.0865625,-0.02150437981
0.08658333333,-0.02140882798
0.08660416667,-0.02137896791
0.086625,-0.02134759165
0.08664583333,-0.02123171091
0.08666666667,-0.02113751508
0.0866875,-0.02097403631
0.08670833333,-0.02079195715
0.08672916667,-0.02064803056
0.08675,-0.02052052505
0.08677083333,-0.020446321
0.08679166667,-0.02038463205
0.0868125,-0.02036017925
0.08683333333,-0.02030909993
0.08685416667,-0.02025507204
0.086875,-0.02024480142
0.08689583333,-0.02017063275
0.08691666667,-0.02009874396
0.0869375,-0.02000085078
0.08695833333,-0.01983174309
0.08697916667,-0.01980996691
0.087,-0.01960953698
0.08702083333,-0.01942164078
0.08704166667,-0.01932788454
0.0870625,-0.01905240305
0.08708333333,-0.01908206008
0.08710416667,-0.01878398657
0.087125,-0.01869836822
0.08714583333,-0.01880336739
0.08716666667,-0.01843584701
0.0871875,-0.01879829355
0.08720833333,-0.01853877679
0.08722916667,-0.01823031344
0.08725,-0.0183676891
0.08727083333,-0.0179052446
0.08729166667,-0.01789807715
0.0873125,-0.01756200194
0.08733333333,-0.01735066436
0.08735416667,-0.01730982773
0.087375,-0.01686825417
0.08739583333,-0.01687788963
0.08741666667,-0.01655836031
0.0874375,-0.01641459763
0.08745833333,-0.01646472886
0.08747916667,-0.01625842787
0.0875,-0.01631964743
0.08752083333,-0.01621427014
0.08754166667,-0.01607166044
0.0875625,-0.01598402672
0.08758333333,-0.01573076658
0.08760416667,-0.01553610153
0.087625,-0.01528865844
0.08764583333,-0.01499139983
0.08766666667,-0.01472250745
0.0876875,-0.01443277486
0.08770833333,-0.01416322775
0.08772916667,-0.0139253512
0.08775,-0.01373851486
0.08777083333,-0.01360305678
0.08779166667,-0.01343779638
0.0878125,-0.01336016692
0.08783333333,-0.01326997206
0.08785416667,-0.01310462505
0.087875,-0.01295698155
0.08789583333,-0.01277868822
0.08791666667,-0.01255904697
0.0879375,-0.01229131222
0.08795833333,-0.01198003907
0.08797916667,-0.01176989451
0.088,-0.01151326671
0.08802083333,-0.0112019144
0.08804166667,-0.01104118116
0.0880625,-0.01082024164
0.08808333333,-0.01061779168
0.08810416667,-0.01050429884
0.088125,-0.0102609694
0.08814583333,-0.01015894208
0.08816666667,-0.01003802102
0.0881875,-0.009877438657
0.08820833333,-0.009788655676
0.08822916667,-0.009528265335
0.08825,-0.009346649051
0.08827083333,-0.009144644253
0.08829166667,-0.008747324347
0.0883125,-0.008514795452
0.08833333333,-0.008144883439
0.08835416667,-0.007766500115
0.088375,-0.007582205348
0.08839583333,-0.007424167357
0.08841666667,-0.007261872757
0.0884375,-0.007071437314
0.08845833333,-0.006907637231
0.08847916667,-0.006746248342
0.0885,-0.006708406378
0.08852083333,-0.006658263505
0.08854166667,-0.006370782387
0.0885625,-0.006382291671
0.08858333333,-0.006261217408
0.08860416667,-0.006027827971
0.088625,-0.005935872905
0.08864583333,-0.005694432184
0.08866666667,-0.005558855366
0.0886875,-0.005390073173
0.08870833333,-0.0052155843
0.08872916667,-0.005091378931
0.08875,-0.004884260707
0.08877083333,-0.004838795401
0.08879166667,-0.004683612846
0.0888125,-0.00459186919
0.08883333333,-0.004541768692
0.08885416667,-0.004383531865
0.088875,-0.00437396206
0.08889583333,-0.004219713621
0.08891666667,-0.004027847201
0.0889375,-0.003880760167
0.08895833333,-0.003592420369
0.08897916667,-0.003393915249
0.089,-0.003158955602
0.08902083333,-0.002916063182
0.08904166667,-0.002733950038
0.0890625,-0.002522728872
0.08908333333,-0.00236101076
0.08910416667,-0.002227887046
0.089125,-0.002100408077
0.08914583333,-0.002015662845
0.08916666667,-0.001900342992
0.0891875,-0.00181127945
0.08920833333,-0.001805713167
0.08922916667,-0.001658102381
0.08925,-0.001477651531
0.08927083333,-0.00136493193
0.08929166667,-0.0011685153
0.0893125,-0.001045917394
0.08933333333,-0.0008922768757
0.08935416667,-0.0006612241268
0.089375,-0.0005428567529
0.08939583333,-0.0003575518494
0.08941666667,-0.0001328437356
0.0894375,7.279182319e-05
0.08945833333,0.0003628195263
0.08947916667,0.0004587221192
0.0895,0.0005574570969
0.08952083333,0.0006815684028
0.08954166667,0.0006766617298
0.0895625,0.0008927338058
0.08958333333,0.001050947234
0.08960416667,0.001168292598
0.089625,0.001416674699
0.08964583333,0.001677868771
0.08966666667,0.001949066529
0.0896875,0.002215935383
