time,data
0,2.146550848e-08
2.083333333e-05,3.370799462e-08
4.166666667e-05,4.513931628e-08
6.25e-05,5.567783745e-08
8.333333333e-05,6.618479631e-08
0.0001041666667,7.72584059e-08
0.000125,8.907557714e-08
0.0001458333333,1.012881867e-07
0.0001666666667,1.130779097e-07
0.0001875,1.243778627e-07
0.0002083333333,1.353244272e-07
0.0002291666667,1.469349229e-07
0.00025,1.597425978e-07
0.0002708333333,1.738681448e-07
0.0002916666667,1.888328711e-07
0.0003125,2.037176614e-07
0.0003333333333,2.183584513e-07
0.0003541666667,2.326004136e-07
0.000375,2.471406901e-07
0.0003958333333,2.620912198e-07
0.0004166666667,2.773128358e-07
0.0004375,2.922610634e-07
0.0004583333333,3.060623897e-07
0.0004791666667,3.186613071e-07
0.0005,3.299053333e-07
0.0005208333333,3.405625932e-07
0.0005416666667,3.509160535e-07
0.0005625,3.6128327e-07
0.0005833333333,3.715841217e-07
0.0006041666667,3.813232183e-07
0.000625,3.904119126e-07
0.0006458333333,3.98394576e-07
0.0006666666667,4.057320382e-07
0.0006875,4.124828763e-07
0.0007083333333,4.190527534e-07
0.0007291666667,4.252305814e-07
0.00075,4.301692229e-07
0.0007708333333,4.33148017e-07
0.0007916666667,4.330284185e-07
0.0008125,4.302691252e-07
0.0008333333333,4.252691497e-07
0.0008541666667,4.193025518e-07
0.000875,4.127294631e-07
0.0008958333333,4.048570474e-07
0.0009166666667,3.949456016e-07
0.0009375,3.818774417e-07
0.0009583333333,3.66694934e-07
0.0009791666667,3.506150392e-07
0.001,3.354000171e-07
0.001020833333,3.213001776e-07
0.001041666667,3.066601835e-07
0.0010625,2.897174056e-07
0.001083333333,2.687114318e-07
0.001104166667,2.446387271e-07
0.001125,2.190221124e-07
0.001145833333,1.936708145e-07
0.001166666667,1.683712014e-07
0.0011875,1.410812018e-07
0.001208333333,1.098200357e-07
0.001229166667,7.372300104e-08
0.00125,3.49777487e-08
0.001270833333,-3.721004616e-09
0.001291666667,-3.990204434e-08
0.0013125,-7.397870405e-08
0.001333333333,-1.08124631e-07
0.001354166667,-1.443350186e-07
0.001375,-1.833256391e-07
0.001395833333,-2.226385334e-07
0.001416666667,-2.603186147e-07
0.0014375,-2.948045505e-07
0.001458333333,-3.277961866e-07
0.001479166667,-3.621657925e-07
0.0015,-3.998788998e-07
0.001520833333,-4.4134174e-07
0.001541666667,-4.837975212e-07
0.0015625,-5.251433777e-07
0.001583333333,-5.637984373e-07
0.001604166667,-6.006796411e-07
0.001625,-6.375560702e-07
0.001645833333,-6.750312878e-07
0.001666666667,-7.126719197e-07
0.0016875,-7.477992767e-07
0.001708333333,-7.78893309e-07
0.001729166667,-8.048724567e-07
0.00175,-8.270891954e-07
0.001770833333,-8.471927231e-07
0.001791666667,-8.666046938e-07
0.0018125,-8.859789773e-07
0.001833333333,-9.042639135e-07
0.001854166667,-9.210693861e-07
0.001875,-9.352123698e-07
0.001895833333,-9.471658586e-07
0.001916666667,-9.575066997e-07
0.0019375,-9.668827943e-07
0.001958333333,-9.761545243e-07
0.001979166667,-9.83812356e-07
0.002,-9.88794568e-07
0.002020833333,-9.881689493e-07
0.002041666667,-9.809904213e-07
0.0020625,-9.676220998e-07
0.002083333333,-9.498435247e-07
0.002104166667,-9.30480951e-07
0.002125,-9.097115026e-07
0.002145833333,-8.867897918e-07
0.002166666667,-8.5903946e-07
0.0021875,-8.253974215e-07
0.002208333333,-7.876986388e-07
0.002229166667,-7.492355394e-07
0.00225,-7.138838782e-07
0.002270833333,-6.813316986e-07
0.002291666667,-6.486900475e-07
0.0023125,-6.10935956e-07
0.002333333333,-5.656675626e-07
0.002354166667,-5.14269118e-07
0.002375,-4.608326378e-07
0.002395833333,-4.088247749e-07
0.002416666667,-3.574713787e-07
0.0024375,-3.028381741e-07
0.002458333333,-2.400968526e-07
0.002479166667,-1.685434938e-07
0.0025,-9.214431884e-08
0.002520833333,-1.716129816e-08
0.002541666667,5.164740458e-08
0.0025625,1.154486142e-07
0.002583333333,1.781122165e-07
0.002604166667,2.446874134e-07
0.002625,3.153503485e-07
0.002645833333,3.864534222e-07
0.002666666667,4.531690365e-07
0.0026875,5.131520311e-07
0.002708333333,5.696641665e-07
0.002729166667,6.279612421e-07
0.00275,6.925738489e-07
0.002770833333,7.634670283e-07
0.002791666667,8.36277593e-07
0.0028125,9.065533391e-07
0.002833333333,9.713554618e-07
0.002854166667,1.032574687e-06
0.002875,1.092620892e-06
0.002895833333,1.153540211e-06
0.002916666667,1.213737619e-06
0.0029375,1.269515337e-06
0.002958333333,1.317581905e-06
0.002979166667,1.356415964e-06
0.003,1.387911993e-06
0.003020833333,1.414905455e-06
0.003041666667,1.440206006e-06
0.0030625,1.465149921e-06
0.003083333333,1.488960152e-06
0.003104166667,1.510738684e-06
0.003125,1.528562962e-06
0.003145833333,1.542618406e-06
0.003166666667,1.553085781e-06
0.0031875,1.561983822e-06
0.003208333333,1.570216568e-06
0.003229166667,1.577135549e-06
0.00325,1.579992272e-06
0.003270833333,1.574016324e-06
0.003291666667,1.556627808e-06
0.0033125,1.527674613e-06
0.003333333333,1.491109174e-06
0.003354166667,1.451968615e-06
0.003375,1.411836251e-06
0.003395833333,1.36972028e-06
0.003416666667,1.320040042e-06
0.0034375,1.261162311e-06
0.003458333333,1.194716219e-06
0.003479166667,1.12774444e-06
0.0035,1.066843538e-06
0.003520833333,1.01264402e-06
0.003541666667,9.600489648e-07
0.0035625,8.998636076e-07
0.003583333333,8.272879768e-07
0.003604166667,7.443537129e-07
0.003625,6.582541232e-07
0.003645833333,5.758059842e-07
0.003666666667,4.959269404e-07
0.0036875,4.122437076e-07
0.003708333333,3.156614525e-07
0.003729166667,2.049804948e-07
0.00375,8.61484537e-08
0.003770833333,-2.905570895e-08
0.003791666667,-1.329537866e-07
0.0038125,-2.263972476e-07
0.003833333333,-3.167754699e-07
0.003854166667,-4.12773403e-07
0.003875,-5.150296829e-07
0.003895833333,-6.177465934e-07
0.003916666667,-7.120629562e-07
0.0039375,-7.939758007e-07
0.003958333333,-8.690581126e-07
0.003979166667,-9.458270256e-07
0.004,-1.033434046e-06
0.004020833333,-1.130519308e-06
0.004041666667,-1.231203214e-06
0.0040625,-1.326139113e-06
0.004083333333,-1.411362973e-06
0.004104166667,-1.489427177e-06
0.004125,-1.565139087e-06
0.004145833333,-1.64249559e-06
0.004166666667,-1.718500585e-06
0.0041875,-1.787323868e-06
0.004208333333,-1.842431288e-06
0.004229166667,-1.881561275e-06
0.00425,-1.908321565e-06
0.004270833333,-1.927378207e-06
0.004291666667,-1.945310714e-06
0.0043125,-1.962267561e-06
0.004333333333,-1.978690989e-06
0.004354166667,-1.990120609e-06
0.004375,-1.995159209e-06
0.004395833333,-1.993425258e-06
0.004416666667,-1.986487632e-06
0.0044375,-1.978802402e-06
0.004458333333,-1.970469157e-06
0.004479166667,-1.961236194e-06
0.0045,-1.944318456e-06
0.004520833333,-1.912825155e-06
0.004541666667,-1.863270882e-06
0.0045625,-1.795505796e-06
0.004583333333,-1.718808335e-06
0.004604166667,-1.638073741e-06
0.004625,-1.558348572e-06
0.004645833333,-1.473761472e-06
0.004666666667,-1.377899821e-06
0.0046875,-1.267324933e-06
0.004708333333,-1.146156364e-06
0.004729166667,-1.027190251e-06
0.00475,-9.187911019e-07
0.004770833333,-8.231368724e-07
0.004791666667,-7.291087627e-07
0.0048125,-6.233426006e-07
0.004833333333,-4.989921649e-07
0.004854166667,-3.592122368e-07
0.004875,-2.185702925e-07
0.004895833333,-8.394014372e-08
0.004916666667,4.335991122e-08
0.0049375,1.781077827e-07
0.004958333333,3.313462003e-07
0.004979166667,5.063115509e-07
0.005,6.919178759e-07
0.005020833333,8.686968727e-07
0.005041666667,1.026836117e-06
0.0050625,1.166082825e-06
0.005083333333,1.301188718e-06
0.005104166667,1.443647761e-06
0.005125,1.594736659e-06
0.005145833333,1.7453998e-06
0.005166666667,1.879505476e-06
0.0051875,1.99483452e-06
0.005208333333,2.096037178e-06
0.005229166667,2.201462621e-06
0.00525,2.320572094e-06
0.005270833333,2.454252581e-06
0.005291666667,2.591175189e-06
0.0053125,2.717275947e-06
0.005333333333,2.828252946e-06
0.005354166667,2.925797389e-06
0.005375,3.020638133e-06
0.005395833333,3.115541404e-06
0.005416666667,3.208017915e-06
0.0054375,3.288429525e-06
0.005458333333,3.345994401e-06
0.005479166667,3.380978114e-06
0.0055,3.39392227e-06
0.005520833333,3.398069339e-06
0.005541666667,3.396406555e-06
0.0055625,3.394824262e-06
0.005583333333,3.390170605e-06
0.005604166667,3.377915618e-06
0.005625,3.357411742e-06
0.005645833333,3.324838644e-06
0.005666666667,3.286847914e-06
0.0056875,3.244477966e-06
0.005708333333,3.201924756e-06
0.005729166667,3.157113269e-06
0.00575,3.100308049e-06
0.005770833333,3.025408205e-06
0.005791666667,2.921268788e-06
0.0058125,2.794712373e-06
0.005833333333,2.650584975e-06
0.005854166667,2.503179985e-06
0.005875,2.3552534e-06
0.005895833333,2.20173888e-06
0.005916666667,2.034499403e-06
0.0059375,1.845231964e-06
0.005958333333,1.644251142e-06
0.005979166667,1.443477913e-06
0.006,1.260074896e-06
0.006020833333,1.094422146e-06
0.006041666667,9.32105138e-07
0.0060625,7.572007803e-07
0.006083333333,5.53892221e-07
0.006104166667,3.341271224e-07
0.006125,1.085560513e-07
0.006145833333,-1.041486257e-07
0.006166666667,-3.086752827e-07
0.0061875,-5.209377605e-07
0.006208333333,-7.566154636e-07
0.006229166667,-1.022992706e-06
0.00625,-1.2997466e-06
0.006270833333,-1.566376341e-06
0.006291666667,-1.803144642e-06
0.0063125,-2.013784524e-06
0.006333333333,-2.216699841e-06
0.006354166667,-2.425952516e-06
0.006375,-2.648043846e-06
0.006395833333,-2.863108875e-06
0.006416666667,-3.058393531e-06
0.0064375,-3.221430461e-06
0.006458333333,-3.367709496e-06
0.006479166667,-3.515756589e-06
0.0065,-3.681923545e-06
0.006520833333,-3.867243322e-06
0.006541666667,-4.052243639e-06
0.0065625,-4.224171334e-06
0.006583333333,-4.369587714e-06
0.006604166667,-4.498407179e-06
0.006625,-4.620282652e-06
0.006645833333,-4.739928045e-06
0.006666666667,-4.856619853e-06
0.0066875,-4.949393769e-06
0.006708333333,-5.014251656e-06
0.006729166667,-5.039858479e-06
0.00675,-5.039194548e-06
0.006770833333,-5.021249763e-06
0.006791666667,-4.995836662e-06
0.0068125,-4.969191195e-06
0.006833333333,-4.933930995e-06
0.006854166667,-4.890073797e-06
0.006875,-4.828640158e-06
0.006895833333,-4.753580015e-06
0.006916666667,-4.667248049e-06
0.0069375,-4.574950708e-06
0.006958333333,-4.48292667e-06
0.006979166667,-4.382106908e-06
0.007,-4.269042165e-06
0.007020833333,-4.121946859e-06
0.007041666667,-3.94037761e-06
0.0070625,-3.721261464e-06
0.007083333333,-3.481273097e-06
0.007104166667,-3.235712938e-06
0.007125,-2.986687605e-06
0.007145833333,-2.733135261e-06
0.007166666667,-2.453717343e-06
0.0071875,-2.148550493e-06
0.007208333333,-1.822700142e-06
0.007229166667,-1.499380801e-06
0.00725,-1.201466603e-06
0.007270833333,-9.239275869e-07
0.007291666667,-6.568733397e-07
0.0073125,-3.634736458e-07
0.007333333333,-3.854323793e-08
0.007354166667,3.160806159e-07
0.007375,6.730679729e-07
0.007395833333,1.012984512e-06
0.007416666667,1.342204769e-06
0.0074375,1.677605724e-06
0.007458333333,2.051098591e-06
0.007479166667,2.460694532e-06
0.0075,2.889205007e-06
0.007520833333,3.29994532e-06
0.007541666667,3.668083082e-06
0.0075625,4.002199148e-06
0.007583333333,4.318574156e-06
0.007604166667,4.650905794e-06
0.007625,4.991993137e-06
0.007645833333,5.331012289e-06
0.007666666667,5.636009973e-06
0.0076875,5.898999916e-06
0.007708333333,6.136564025e-06
0.007729166667,6.372095868e-06
0.00775,6.63539322e-06
0.007770833333,6.917537576e-06
0.007791666667,7.20472508e-06
0.0078125,7.468266176e-06
0.007833333333,7.696620742e-06
0.007854166667,7.901109711e-06
0.007875,8.088926734e-06
0.007895833333,8.279326721e-06
0.007916666667,8.454548151e-06
0.0079375,8.607106793e-06
0.007958333333,8.71278462e-06
0.007979166667,8.770244676e-06
0.008,8.788204468e-06
0.008020833333,8.778038136e-06
0.008041666667,8.760267519e-06
0.0080625,8.731951311e-06
0.008083333333,8.698713827e-06
0.008104166667,8.647759387e-06
0.008125,8.575841093e-06
0.008145833333,8.483880265e-06
0.008166666667,8.369850548e-06
0.0081875,8.251792678e-06
0.008208333333,8.122163308e-06
0.008229166667,7.990573977e-06
0.00825,7.832833035e-06
0.008270833333,7.637716408e-06
0.008291666667,7.391200143e-06
0.0083125,7.092531177e-06
0.008333333333,6.766847036e-06
0.008354166667,6.424382264e-06
0.008375,6.085038422e-06
0.008395833333,5.73190573e-06
0.008416666667,5.350933407e-06
0.0084375,4.933241144e-06
0.008458333333,4.483329576e-06
0.008479166667,4.040637577e-06
0.0085,3.618312576e-06
0.008520833333,3.233870075e-06
0.008541666667,2.851808176e-06
0.0085625,2.445433438e-06
0.008583333333,1.991551926e-06
0.008604166667,1.498215511e-06
0.008625,1.002063414e-06
0.008645833333,5.191921559e-07
0.008666666667,5.810230519e-08
0.0086875,-4.194002656e-07
0.008708333333,-9.385851172e-07
0.008729166667,-1.508298737e-06
0.00875,-2.104749456e-06
0.008770833333,-2.674611551e-06
0.008791666667,-3.200628043e-06
0.0088125,-3.67104667e-06
0.008833333333,-4.131272362e-06
0.008854166667,-4.600040938e-06
0.008875,-5.088524631e-06
0.008895833333,-5.571323527e-06
0.008916666667,-6.010151537e-06
0.0089375,-6.401501651e-06
0.008958333333,-6.751561159e-06
0.008979166667,-7.109001217e-06
0.009,-7.493201338e-06
0.009020833333,-7.907443432e-06
0.009041666667,-8.327428986e-06
0.0090625,-8.712793715e-06
0.009083333333,-9.061778655e-06
0.009104166667,-9.367294297e-06
0.009125,-9.664983736e-06
0.009145833333,-9.953222616e-06
0.009166666667,-1.023214008e-05
0.0091875,-1.047612932e-05
0.009208333333,-1.065980359e-05
0.009229166667,-1.078434343e-05
0.00925,-1.084976157e-05
0.009270833333,-1.088844965e-05
0.009291666667,-1.090873138e-05
0.0093125,-1.092331968e-05
0.009333333333,-1.092743878e-05
0.009354166667,-1.090565456e-05
0.009375,-1.086043085e-05
0.009395833333,-1.077665911e-05
0.009416666667,-1.067783342e-05
0.0094375,-1.055992379e-05
0.009458333333,-1.044142573e-05
0.009479166667,-1.030991643e-05
0.0095,-1.014652116e-05
0.009520833333,-9.932810826e-06
0.009541666667,-9.643457815e-06
0.0095625,-9.297300494e-06
0.009583333333,-8.905997674e-06
0.009604166667,-8.505158803e-06
0.009625,-8.101170351e-06
0.009645833333,-7.677201211e-06
0.009666666667,-7.218030532e-06
0.0096875,-6.697309345e-06
0.009708333333,-6.148741249e-06
0.009729166667,-5.594220511e-06
0.00975,-5.081937161e-06
0.009770833333,-4.605206414e-06
0.009791666667,-4.13406724e-06
0.0098125,-3.625683121e-06
0.009833333333,-3.047327937e-06
0.009854166667,-2.426675792e-06
0.009875,-1.79184542e-06
0.009895833333,-1.187222324e-06
0.009916666667,-6.008092441e-07
0.0099375,5.922608182e-09
0.009958333333,6.688323424e-07
0.009979166667,1.408850949e-06
0.01,2.21279879e-06
0.01002083333,3.028640549e-06
0.01004166667,3.716046649e-06
0.0100625,4.288740911e-06
0.01008333333,4.817306035e-06
0.01010416667,5.376235094e-06
0.010125,5.995131232e-06
0.01014583333,6.651397598e-06
0.01016666667,7.270976766e-06
0.0101875,7.811596333e-06
0.01020833333,8.285512195e-06
0.01022916667,8.749385415e-06
0.01025,9.248211427e-06
0.01027083333,9.809675248e-06
0.01029166667,1.039898871e-05
0.0103125,1.097995755e-05
0.01033333333,1.149940545e-05
0.01035416667,1.196676021e-05
0.010375,1.237495326e-05
0.01039583333,1.27563726e-05
0.01041666667,1.309970139e-05
0.0104375,1.339614755e-05
0.01045833333,1.365853586e-05
0.01047916667,1.388070996e-05
0.0105,1.40732227e-05
0.01052083333,1.424406491e-05
0.01054166667,1.43827283e-05
0.0105625,1.448457806e-05
0.01058333333,1.453713503e-05
0.01060416667,1.455094116e-05
0.010625,1.452740798e-05
0.01064583333,1.4503893e-05
0.01066666667,1.445539056e-05
0.0106875,1.44078067e-05
0.01070833333,1.432908812e-05
0.01072916667,1.422622699e-05
0.01075,1.407435411e-05
0.01077083333,1.385339419e-05
0.01079166667,1.358100144e-05
0.0108125,1.324716959e-05
0.01083333333,1.288855947e-05
0.01085416667,1.252474158e-05
0.010875,1.21343146e-05
0.01089583333,1.171138229e-05
0.01091666667,1.117715874e-05
0.0109375,1.057694317e-05
0.01095833333,9.907607819e-06
0.01097916667,9.29030557e-06
0.011,8.741678357e-06
0.01102083333,8.270666513e-06
0.01104166667,7.832178198e-06
0.0110625,7.303540315e-06
0.01108333333,6.678246791e-06
0.01110416667,5.960594535e-06
0.011125,5.220575076e-06
0.01114583333,4.534189884e-06
0.01116666667,3.889292202e-06
0.0111875,3.267291277e-06
0.01120833333,2.542403536e-06
0.01122916667,1.73015485e-06
0.01125,8.29317969e-07
0.01127083333,-5.750995768e-08
0.01129166667,-8.756139778e-07
0.0113125,-1.591713158e-06
0.01133333333,-2.245646556e-06
0.01135416667,-2.897882496e-06
0.011375,-3.569955425e-06
0.01139583333,-4.261351478e-06
0.01141666667,-4.944165084e-06
0.0114375,-5.590738965e-06
0.01145833333,-6.221253443e-06
0.01147916667,-6.814735116e-06
0.0115,-7.441682556e-06
0.01152083333,-8.045999493e-06
0.01154166667,-8.658286788e-06
0.0115625,-9.238050552e-06
0.01158333333,-9.797461644e-06
0.01160416667,-1.03637085e-05
0.011625,-1.090779097e-05
0.01164583333,-1.144319776e-05
0.01166666667,-1.194264041e-05
0.0116875,-1.235989839e-05
0.01170833333,-1.270572102e-05
0.01172916667,-1.296040045e-05
0.01175,-1.317064743e-05
0.01177083333,-1.333804266e-05
0.01179166667,-1.350529237e-05
0.0118125,-1.362917919e-05
0.01183333333,-1.374781459e-05
0.01185416667,-1.382124083e-05
0.011875,-1.385112409e-05
0.01189583333,-1.38771511e-05
0.01191666667,-1.386963686e-05
0.0119375,-1.386858912e-05
0.01195833333,-1.38774958e-05
0.01197916667,-1.384875122e-05
0.012,-1.379235073e-05
0.01202083333,-1.36024828e-05
0.01204166667,-1.332159081e-05
0.0120625,-1.292722663e-05
0.01208333333,-1.251326466e-05
0.01210416667,-1.206272373e-05
0.012125,-1.161844193e-05
0.01214583333,-1.119549506e-05
0.01216666667,-1.07340602e-05
0.0121875,-1.020006403e-05
0.01220833333,-9.627210602e-06
0.01222916667,-9.026829503e-06
0.01225,-8.477045412e-06
0.01227083333,-7.934071618e-06
0.01229166667,-7.397105492e-06
0.0123125,-6.802693406e-06
0.01233333333,-6.184180165e-06
0.01235416667,-5.467542906e-06
0.012375,-4.733604783e-06
0.01239583333,-4.007727966e-06
0.01241666667,-3.287178515e-06
0.0124375,-2.530257689e-06
0.01245833333,-1.759377255e-06
0.01247916667,-9.476616469e-07
0.0125,-1.228155355e-07
0.01252083333,6.891369253e-07
0.01254166667,1.467943434e-06
0.0125625,2.280248282e-06
0.01258333333,3.070486628e-06
0.01260416667,3.879647466e-06
0.012625,4.64976074e-06
0.01264583333,5.350290849e-06
0.01266666667,5.957379472e-06
0.0126875,6.540981303e-06
0.01270833333,7.127187018e-06
0.01272916667,7.768388059e-06
0.01275,8.454384442e-06
0.01277083333,9.196501196e-06
0.01279166667,9.837604011e-06
0.0128125,1.043434531e-05
0.01283333333,1.096131473e-05
0.01285416667,1.147309922e-05
0.012875,1.203091688e-05
0.01289583333,1.262085789e-05
0.01291666667,1.315927966e-05
0.0129375,1.360672377e-05
0.01295833333,1.39240974e-05
0.01297916667,1.413204245e-05
0.013,1.427151528e-05
0.01302083333,1.445933867e-05
0.01304166667,1.463859553e-05
0.0130625,1.485512894e-05
0.01308333333,1.499074642e-05
0.01310416667,1.502198847e-05
0.013125,1.499697555e-05
0.01314583333,1.492904084e-05
0.01316666667,1.486267684e-05
0.0131875,1.48734398e-05
0.01320833333,1.487751888e-05
0.01322916667,1.483850974e-05
0.01325,1.475242516e-05
0.01327083333,1.449676802e-05
0.01329166667,1.412580423e-05
0.0133125,1.381298989e-05
0.01333333333,1.340841573e-05
0.01335416667,1.305685328e-05
0.013375,1.267282914e-05
0.01339583333,1.216884812e-05
0.01341666667,1.157902079e-05
0.0134375,1.086745942e-05
0.01345833333,1.010243977e-05
0.01347916667,9.466137271e-06
0.0135,8.903255548e-06
0.01352083333,8.458962839e-06
0.01354166667,8.007889846e-06
0.0135625,7.513869605e-06
0.01358333333,6.856269465e-06
0.01360416667,6.100280189e-06
0.013625,5.270359907e-06
0.01364583333,4.493928373e-06
0.01366666667,3.773119715e-06
0.0136875,3.107443945e-06
0.01370833333,2.403699909e-06
0.01372916667,1.632732392e-06
0.01375,7.236923238e-07
0.01377083333,-2.617232155e-07
0.01379166667,-1.211110202e-06
0.0138125,-2.060423867e-06
0.01383333333,-2.749651458e-06
0.01385416667,-3.315790991e-06
0.013875,-3.913327419e-06
0.01389583333,-4.463887308e-06
0.01391666667,-5.096733275e-06
0.0139375,-5.796926416e-06
0.01395833333,-6.513919743e-06
0.01397916667,-7.25115342e-06
0.014,-7.935215763e-06
0.01402083333,-8.457511285e-06
0.01404166667,-8.892323422e-06
0.0140625,-9.25526092e-06
0.01408333333,-9.636057257e-06
0.01410416667,-1.011451695e-05
0.014125,-1.080565744e-05
0.01414583333,-1.154357415e-05
0.01416666667,-1.219518253e-05
0.0141875,-1.260975569e-05
0.01420833333,-1.267441257e-05
0.01422916667,-1.253168739e-05
0.01425,-1.244534542e-05
0.01427083333,-1.246418287e-05
0.01429166667,-1.275012983e-05
0.0143125,-1.311926462e-05
0.01433333333,-1.32945388e-05
0.01435416667,-1.312365293e-05
0.014375,-1.26608129e-05
0.01439583333,-1.213895302e-05
0.01441666667,-1.188363149e-05
0.0144375,-1.189661452e-05
0.01445833333,-1.225041706e-05
0.01447916667,-1.255688949e-05
0.0145,-1.263877039e-05
0.01452083333,-1.222461105e-05
0.01454166667,-1.139490087e-05
0.0145625,-1.03791217e-05
0.01458333333,-9.441694601e-06
0.01460416667,-8.754172086e-06
0.014625,-8.429608897e-06
0.01464583333,-8.198598152e-06
0.01466666667,-7.965319128e-06
0.0146875,-7.429631751e-06
0.01470833333,-6.591147667e-06
0.01472916667,-5.561315902e-06
0.01475,-4.580768291e-06
0.01477083333,-3.819436643e-06
0.01479166667,-3.341445336e-06
0.0148125,-3.051866315e-06
0.01483333333,-2.656557399e-06
0.01485416667,-1.828100608e-06
0.014875,-5.345730187e-07
0.01489583333,9.070359965e-07
0.01491666667,2.255604386e-06
0.0149375,3.183361059e-06
0.01495833333,3.521059625e-06
0.01497916667,3.593465635e-06
0.015,3.651465022e-06
0.01502083333,4.197074304e-06
0.01504166667,5.286124178e-06
0.0150625,6.762944849e-06
0.01508333333,8.359974345e-06
0.01510416667,9.747364857e-06
0.015125,1.056680503e-05
0.01514583333,1.096879623e-05
0.01516666667,1.106516993e-05
0.0151875,1.126433926e-05
0.01520833333,1.165611502e-05
0.01522916667,1.233624334e-05
0.01525,1.309856361e-05
0.01527083333,1.385930682e-05
0.01529166667,1.438109484e-05
0.0153125,1.462170712e-05
0.01533333333,1.477731257e-05
0.01535416667,1.506550234e-05
0.015375,1.548147884e-05
0.01539583333,1.636204252e-05
0.01541666667,1.730906297e-05
0.0154375,1.810238064e-05
0.01545833333,1.840299956e-05
0.01547916667,1.816924851e-05
0.0155,1.750155025e-05
0.01552083333,1.670137863e-05
0.01554166667,1.621013325e-05
0.0155625,1.612696724e-05
0.01558333333,1.640902701e-05
0.01560416667,1.68065053e-05
0.015625,1.689136479e-05
0.01564583333,1.672033068e-05
0.01566666667,1.621268711e-05
0.0156875,1.562955731e-05
0.01570833333,1.519828402e-05
0.01572916667,1.505152341e-05
0.01575,1.486722795e-05
0.01577083333,1.45371514e-05
0.01579166667,1.383424569e-05
0.0158125,1.276362855e-05
0.01583333333,1.167170376e-05
0.01585416667,1.071969382e-05
0.015875,1.011373115e-05
0.01589583333,9.750098798e-06
0.01591666667,9.298714758e-06
0.0159375,8.701003026e-06
0.01595833333,7.598873708e-06
0.01597916667,6.413908977e-06
0.016,5.189590411e-06
0.01602083333,4.226386864e-06
0.01604166667,3.463036137e-06
0.0160625,2.917585789e-06
0.01608333333,2.18868081e-06
0.01610416667,1.130054443e-06
0.016125,-4.74914863e-08
0.01614583333,-1.278879608e-06
0.01616666667,-2.257094366e-06
0.0161875,-3.067276793e-06
0.01620833333,-3.731185643e-06
0.01622916667,-4.354017165e-06
0.01625,-5.291450179e-06
0.01627083333,-6.468359516e-06
0.01629166667,-7.920704775e-06
0.0163125,-9.288547517e-06
0.01633333333,-1.04649389e-05
0.01635416667,-1.122651247e-05
0.016375,-1.171996155e-05
0.01639583333,-1.211195286e-05
0.01641666667,-1.242747658e-05
0.0164375,-1.29331238e-05
0.01645833333,-1.364635409e-05
0.01647916667,-1.4700262e-05
0.0165,-1.564668855e-05
0.01652083333,-1.635991975e-05
0.01654166667,-1.68663064e-05
0.0165625,-1.704106398e-05
0.01658333333,-1.733489808e-05
0.01660416667,-1.748298018e-05
0.016625,-1.808532943e-05
0.01664583333,-1.86955258e-05
0.01666666667,-1.931520092e-05
0.0166875,-1.967142089e-05
0.01670833333,-1.960966256e-05
0.01672916667,-1.938545574e-05
0.01675,-1.895537753e-05
0.01677083333,-1.863422222e-05
0.01679166667,-1.872604298e-05
0.0168125,-1.895516652e-05
0.01683333333,-1.908194827e-05
0.01685416667,-1.891496504e-05
0.016875,-1.826485277e-05
0.01689583333,-1.717429222e-05
0.01691666667,-1.617298039e-05
0.0169375,-1.540449011e-05
0.01695833333,-1.525756397e-05
0.01697916667,-1.540545964e-05
0.017,-1.567636536e-05
0.01702083333,-1.544338556e-05
0.01704166667,-1.463503486e-05
0.0170625,-1.342160613e-05
0.01708333333,-1.190520561e-05
0.01710416667,-1.062490992e-05
0.017125,-9.582880921e-06
0.01714583333,-8.748649634e-06
0.01716666667,-7.936470865e-06
0.0171875,-6.762336398e-06
0.01720833333,-5.469948064e-06
0.01722916667,-4.012361842e-06
0.01725,-2.803098596e-06
0.01727083333,-1.851023399e-06
0.01729166667,-1.250841706e-06
0.0173125,-7.513208402e-07
0.01733333333,-1.63899017e-07
0.01735416667,7.374504776e-07
0.017375,2.099683115e-06
0.01739583333,3.785668696e-06
0.01741666667,5.747894647e-06
0.0174375,7.691263818e-06
0.01745833333,9.210948519e-06
0.01747916667,1.034352954e-05
0.0175,1.106922991e-05
0.01752083333,1.136584888e-05
0.01754166667,1.19183951e-05
0.0175625,1.299803807e-05
0.01758333333,1.434908154e-05
0.01760416667,1.59005067e-05
0.017625,1.741479355e-05
0.01764583333,1.829815847e-05
0.01766666667,1.881192657e-05
0.0176875,1.925981087e-05
0.01770833333,1.997678191e-05
0.01772916667,2.099222365e-05
0.01775,2.226840843e-05
0.01777083333,2.33922492e-05
0.01779166667,2.383152787e-05
0.0178125,2.407860484e-05
0.01783333333,2.393181967e-05
0.01785416667,2.419249176e-05
0.017875,2.458908784e-05
0.01789583333,2.543019764e-05
0.01791666667,2.625468551e-05
0.0179375,2.686054358e-05
0.01795833333,2.727565152e-05
0.01797916667,2.734313239e-05
0.018,2.72557063e-05
0.01802083333,2.696721276e-05
0.01804166667,2.641240098e-05
0.0180625,2.610824777e-05
0.01808333333,2.550098907e-05
0.01810416667,2.511621824e-05
0.018125,2.46267391e-05
0.01814583333,2.438806041e-05
0.01816666667,2.429665983e-05
0.0181875,2.406179374e-05
0.01820833333,2.372078779e-05
0.01822916667,2.323755871e-05
0.01825,2.259487519e-05
0.01827083333,2.160359145e-05
0.01829166667,2.068590766e-05
0.0183125,1.946545126e-05
0.01833333333,1.840567529e-05
0.01835416667,1.761990279e-05
0.018375,1.649480691e-05
0.01839583333,1.55663547e-05
0.01841666667,1.432654517e-05
0.0184375,1.285302096e-05
0.01845833333,1.135348884e-05
0.01847916667,1.00062025e-05
0.0185,9.196621249e-06
0.01852083333,8.3984105e-06
0.01854166667,7.626020306e-06
0.0185625,6.165229934e-06
0.01858333333,4.614009413e-06
0.01860416667,2.738778676e-06
0.018625,8.074397897e-07
0.01864583333,-4.073955324e-07
0.01866666667,-1.405742637e-06
0.0186875,-2.0716177e-06
0.01870833333,-3.081556088e-06
0.01872916667,-4.29217198e-06
0.01875,-6.034935723e-06
0.01877083333,-7.790899872e-06
0.01879166667,-9.471224985e-06
0.0188125,-1.118258842e-05
0.01883333333,-1.223153686e-05
0.01885416667,-1.341406369e-05
0.018875,-1.434047499e-05
0.01889583333,-1.520118894e-05
0.01891666667,-1.627990423e-05
0.0189375,-1.716286897e-05
0.01895833333,-1.832713679e-05
0.01897916667,-1.939866524e-05
0.019,-2.038690582e-05
0.01902083333,-2.088389738e-05
0.01904166667,-2.141690129e-05
0.0190625,-2.191250132e-05
0.01908333333,-2.258829591e-05
0.01910416667,-2.373506504e-05
0.019125,-2.51354104e-05
0.01914583333,-2.641123683e-05
0.01916666667,-2.694717114e-05
0.0191875,-2.692861017e-05
0.01920833333,-2.644060623e-05
0.01922916667,-2.55646446e-05
0.01925,-2.565760042e-05
0.01927083333,-2.609447256e-05
0.01929166667,-2.691285408e-05
0.0193125,-2.767697151e-05
0.01933333333,-2.758064511e-05
0.01935416667,-2.674133975e-05
0.019375,-2.556387153e-05
0.01939583333,-2.452460649e-05
0.01941666667,-2.408457476e-05
0.0194375,-2.436364412e-05
0.01945833333,-2.501355993e-05
0.01947916667,-2.533583211e-05
0.0195,-2.497315836e-05
0.01952083333,-2.363580825e-05
0.01954166667,-2.19916783e-05
0.0195625,-2.014309575e-05
0.01958333333,-1.885803067e-05
0.01960416667,-1.80496736e-05
0.019625,-1.771990537e-05
0.01964583333,-1.739847357e-05
0.01966666667,-1.656820496e-05
0.0196875,-1.54930367e-05
0.01970833333,-1.36180015e-05
0.01972916667,-1.157036968e-05
0.01975,-9.918579963e-06
0.01977083333,-8.540305316e-06
0.01979166667,-8.382075066e-06
0.0198125,-8.23290884e-06
0.01983333333,-7.821818144e-06
0.01985416667,-6.642615517e-06
0.019875,-4.237659596e-06
0.01989583333,-1.07350229e-06
0.01991666667,1.88738727e-06
0.0199375,4.040244221e-06
0.01995833333,4.916311809e-06
0.01997916667,4.262310085e-06
0.02,-2.838982618e-05
0.02002083333,-2.815812877e-05
0.02004166667,-2.669967034e-05
0.0200625,-2.411200876e-05
0.02008333333,-2.141643563e-05
0.02010416667,-1.963476825e-05
0.020125,-1.920968498e-05
0.02014583333,-1.950090154e-05
0.02016666667,-2.009988202e-05
0.0201875,-1.950479782e-05
0.02020833333,-1.769750997e-05
0.02022916667,-1.562793295e-05
0.02025,-1.388196688e-05
0.02027083333,-1.372143015e-05
0.02029166667,-1.529959809e-05
0.0203125,-1.744492874e-05
0.02033333333,-1.935455111e-05
0.02035416667,-1.983824041e-05
0.020375,-1.911979052e-05
0.02039583333,-1.767110371e-05
0.02041666667,-1.728395182e-05
0.0204375,-1.783506741e-05
0.02045833333,-1.958007124e-05
0.02047916667,-2.214370943e-05
0.0205,-2.435755778e-05
0.02052083333,-2.598352512e-05
0.02054166667,-2.680244688e-05
0.0205625,-2.745450911e-05
0.02058333333,-2.825870615e-05
0.02060416667,-2.99544372e-05
0.020625,-3.201819345e-05
0.02064583333,-3.42472631e-05
0.02066666667,-3.678733265e-05
0.0206875,-3.820476559e-05
0.02070833333,-3.963805648e-05
0.02072916667,-4.042776709e-05
0.02075,-4.146654828e-05
0.02077083333,-4.324018664e-05
0.02079166667,-4.565855488e-05
0.0208125,-4.86630488e-05
0.02083333333,-5.169129872e-05
0.02085416667,-5.432223406e-05
0.020875,-5.649789819e-05
0.02089583333,-5.824089021e-05
0.02091666667,-6.030635996e-05
0.0209375,-6.25657558e-05
0.02095833333,-6.543453492e-05
0.02097916667,-6.892134115e-05
0.021,-7.296277909e-05
0.02102083333,-7.665206795e-05
0.02104166667,-8.022869588e-05
0.0210625,-8.305520169e-05
0.02108333333,-8.622623864e-05
0.02110416667,-8.969528426e-05
0.021125,-9.368968313e-05
0.02114583333,-9.829584451e-05
0.02116666667,-0.0001029575069
0.0211875,-0.0001076103217
0.02120833333,-0.0001113711332
0.02122916667,-0.000114449278
0.02125,-0.0001174989593
0.02127083333,-0.0001203141946
0.02129166667,-0.0001237725664
0.0213125,-0.0001275732066
0.02133333333,-0.0001314235269
0.02135416667,-0.000134955073
0.021375,-0.0001386241347
0.02139583333,-0.0001421791385
0.02141666667,-0.0001461651118
0.0214375,-0.0001502271334
0.02145833333,-0.000154184585
0.02147916667,-0.0001582795521
0.0215,-0.0001618816896
0.02152083333,-0.0001653703948
0.02154166667,-0.000168984363
0.0215625,-0.00017264075
0.02158333333,-0.0001767734066
0.02160416667,-0.0001806826913
0.021625,-0.000184760167
0.02164583333,-0.0001884204248
0.02166666667,-0.0001925842225
0.0216875,-0.0001959075453
0.02170833333,-0.0001995086786
0.02172916667,-0.000202582698
0.02175,-0.0002058072423
0.02177083333,-0.0002089661284
0.02179166667,-0.0002117618424
0.0218125,-0.000214561398
0.02183333333,-0.0002179410949
0.02185416667,-0.0002208875085
0.021875,-0.0002245042124
0.02189583333,-0.0002280757908
0.02191666667,-0.0002324906964
0.0219375,-0.00023826283
0.02195833333,-0.0002443910635
0.02197916667,-0.0002505910525
0.022,-0.0002568628988
0.02202083333,-0.000261180423
0.02204166667,-0.0002646340872
0.0220625,-0.0002675543656
0.02208333333,-0.0002702780766
0.02210416667,-0.0002739083429
0.022125,-0.0002786108234
0.02214583333,-0.0002827786957
0.02216666667,-0.0002879423846
0.0221875,-0.0002912079508
0.02220833333,-0.0002939029655
0.02222916667,-0.0002960037382
0.02225,-0.0002982486039
0.02227083333,-0.0003024515754
0.02229166667,-0.0003089570673
0.0223125,-0.0003165981616
0.02233333333,-0.0003234154719
0.02235416667,-0.0003281865793
0.022375,-0.0003308938176
0.02239583333,-0.0003318985691
0.02241666667,-0.0003349217295
0.0224375,-0.0003406077449
0.02245833333,-0.0003498382575
0.02247916667,-0.0003610279527
0.0225,-0.0003715554776
0.02252083333,-0.0003793142387
0.02254166667,-0.0003842435835
0.0225625,-0.000387002452
0.02258333333,-0.0003897589631
0.02260416667,-0.0003933864646
0.022625,-0.0003988880198
0.02264583333,-0.0004050814314
0.02266666667,-0.0004115749616
0.0226875,-0.0004170949396
0.02270833333,-0.0004228385224
0.02272916667,-0.0004274180101
0.02275,-0.0004321444139
0.02277083333,-0.0004368102818
0.02279166667,-0.0004423452192
0.0228125,-0.0004490605497
0.02283333333,-0.0004561852838
0.02285416667,-0.0004628587049
0.022875,-0.0004691298527
0.02289583333,-0.0004733868409
0.02291666667,-0.0004776025598
0.0229375,-0.0004822117626
0.02295833333,-0.0004888083786
0.02297916667,-0.0004967187997
0.023,-0.0005064226571
0.02302083333,-0.0005154712126
0.02304166667,-0.000522945018
0.0230625,-0.0005286015803
0.02308333333,-0.0005335086607
0.02310416667,-0.0005392318126
0.023125,-0.0005476125516
0.02314583333,-0.0005565119209
0.02316666667,-0.0005664905184
0.0231875,-0.0005768276751
0.02320833333,-0.0005840900703
0.02322916667,-0.00059036928
0.02325,-0.0005964172888
0.02327083333,-0.0006026161718
0.02329166667,-0.0006103942869
0.0233125,-0.0006187991239
0.02333333333,-0.0006278112996
0.02335416667,-0.0006358691026
0.023375,-0.0006432711962
0.02339583333,-0.0006490905071
0.02341666667,-0.0006558009773
0.0234375,-0.0006622771616
0.02345833333,-0.0006688542198
0.02347916667,-0.0006765061989
0.0235,-0.000684864819
0.02352083333,-0.0006943661137
0.02354166667,-0.0007042994839
0.0235625,-0.0007123011746
0.02358333333,-0.0007190184551
0.02360416667,-0.0007242587162
0.023625,-0.0007288964116
0.02364583333,-0.0007340915618
0.02366666667,-0.0007414384745
0.0236875,-0.0007487863186
0.02370833333,-0.0007582649123
0.02372916667,-0.0007655466907
0.02375,-0.0007719033747
0.02377083333,-0.0007752783713
0.02379166667,-0.0007786252536
0.0238125,-0.000780778937
0.02383333333,-0.0007864444051
0.02385416667,-0.0007922127261
0.023875,-0.0007986023556
0.02389583333,-0.0008031152538
0.02391666667,-0.0008060712134
0.0239375,-0.0008084099391
0.02395833333,-0.0008112992509
0.02397916667,-0.0008155662799
0.024,-0.0008225138299
0.02402083333,-0.0008299013716
0.02404166667,-0.000837566331
0.0240625,-0.0008436263306
0.02408333333,-0.000848434458
0.02410416667,-0.0008504301077
0.024125,-0.0008529804181
0.02414583333,-0.0008565136814
0.02416666667,-0.000862931658
0.0241875,-0.0008709717658
0.02420833333,-0.0008809756837
0.02422916667,-0.0008910616161
0.02425,-0.0009006595355
0.02427083333,-0.0009081290336
0.02429166667,-0.0009150090627
0.0243125,-0.0009214247693
0.02433333333,-0.0009291199967
0.02435416667,-0.000937735429
0.024375,-0.0009471559315
0.02439583333,-0.0009554421995
0.02441666667,-0.0009631905705
0.0244375,-0.000970465655
0.02445833333,-0.0009786821902
0.02447916667,-0.0009871323127
0.0245,-0.0009971524123
0.02452083333,-0.00100613886
0.02454166667,-0.001012861496
0.0245625,-0.001019431395
0.02458333333,-0.00102525705
0.02460416667,-0.001030833577
0.024625,-0.001037685666
0.02464583333,-0.001045293757
0.02466666667,-0.001054530032
0.0246875,-0.001064025913
0.02470833333,-0.001074366504
0.02472916667,-0.001084139221
0.02475,-0.001094914856
0.02477083333,-0.001103773247
0.02479166667,-0.001115197316
0.0248125,-0.001126688207
0.02483333333,-0.001141252462
0.02485416667,-0.001155952457
0.024875,-0.001172684715
0.02489583333,-0.001185036032
0.02491666667,-0.00119497336
0.0249375,-0.001202250249
0.02495833333,-0.001207300927
0.02497916667,-0.001211191877
0.025,-0.00121690589
0.02502083333,-0.00121867517
0.02504166667,-0.00121982093
0.0250625,-0.001218515798
0.02508333333,-0.001216388075
0.02510416667,-0.001212654635
0.025125,-0.001211413532
0.02514583333,-0.001209364273
0.02516666667,-0.001211137976
0.0251875,-0.001214200049
0.02520833333,-0.001217189129
0.02522916667,-0.001222143532
0.02525,-0.001226255903
0.02527083333,-0.001228416222
0.02529166667,-0.001228898065
0.0253125,-0.001232765149
0.02533333333,-0.001237258781
0.02535416667,-0.001241858467
0.025375,-0.001247602166
0.02539583333,-0.001252455404
0.02541666667,-0.001254914678
0.0254375,-0.001257579657
0.02545833333,-0.001259031589
0.02547916667,-0.001262274571
0.0255,-0.001268074382
0.02552083333,-0.001276046271
0.02554166667,-0.001283785561
0.0255625,-0.001292686793
0.02558333333,-0.001297689858
0.02560416667,-0.001300332486
0.025625,-0.001304633101
0.02564583333,-0.001306479797
0.02566666667,-0.0013100371
0.0256875,-0.0013129781
0.02570833333,-0.001319512026
0.02572916667,-0.00132683781
0.02575,-0.00133664743
0.02577083333,-0.00134550815
0.02579166667,-0.001356936875
0.0258125,-0.001365365693
0.02583333333,-0.001375796273
0.02585416667,-0.001382672112
0.025875,-0.001391146332
0.02589583333,-0.001398016117
0.02591666667,-0.001410092111
0.0259375,-0.001422497677
0.02595833333,-0.001434736652
0.02597916667,-0.001448094146
0.026,-0.001465945155
0.02602083333,-0.001479893923
0.02604166667,-0.001494690077
0.0260625,-0.001511362381
0.02608333333,-0.001526260516
0.02610416667,-0.001539705554
0.026125,-0.001551003079
0.02614583333,-0.001561994664
0.02616666667,-0.001571067609
0.0261875,-0.001581184217
0.02620833333,-0.001594284899
0.02622916667,-0.00161009375
0.02625,-0.001625059056
0.02627083333,-0.00163940026
0.02629166667,-0.001648570993
0.0263125,-0.001656359062
0.02633333333,-0.001661215094
0.02635416667,-0.001668671845
0.026375,-0.001677594148
0.02639583333,-0.001689146855
0.02641666667,-0.001702041714
0.0264375,-0.00171635556
0.02645833333,-0.001728395117
0.02647916667,-0.001742880442
0.0265,-0.001757536666
0.02652083333,-0.001776988152
0.02654166667,-0.001799262827
0.0265625,-0.001822487102
0.02658333333,-0.001843033358
0.02660416667,-0.001855895622
0.026625,-0.001863433281
0.02664583333,-0.001866468694
0.02666666667,-0.001871442539
0.0266875,-0.00187920942
0.02670833333,-0.001893465407
0.02672916667,-0.001909867511
0.02675,-0.001924993005
0.02677083333,-0.001934693893
0.02679166667,-0.001937627094
0.0268125,-0.001936578425
0.02683333333,-0.001938673202
0.02685416667,-0.001944022602
0.026875,-0.001956313616
0.02689583333,-0.001966649201
0.02691666667,-0.001978107262
0.0269375,-0.001983678201
0.02695833333,-0.001989121083
0.02697916667,-0.001997727435
0.027,-0.0020156682
0.02702083333,-0.002032215474
0.02704166667,-0.002044814173
0.0270625,-0.002055623103
0.02708333333,-0.002056558616
0.02710416667,-0.002054725774
0.027125,-0.002051884774
0.02714583333,-0.002049890347
0.02716666667,-0.002050080337
0.0271875,-0.00204766891
0.02720833333,-0.002045945497
0.02722916667,-0.002043004148
0.02725,-0.002039239276
0.02727083333,-0.002037362428
0.02729166667,-0.002042667242
0.0273125,-0.002054284094
0.02733333333,-0.002070744522
0.02735416667,-0.002091202186
0.027375,-0.00210585678
0.02739583333,-0.002116429154
0.02741666667,-0.002120544435
0.0274375,-0.002125354949
0.02745833333,-0.002132817404
0.02747916667,-0.002148673171
0.0275,-0.002163667232
0.02752083333,-0.002178345108
0.02754166667,-0.002181664342
0.0275625,-0.002178043593
0.02758333333,-0.002169685205
0.02760416667,-0.002165073762
0.027625,-0.002168118022
0.02764583333,-0.002175071044
0.02766666667,-0.002187890699
0.0276875,-0.002198082861
0.02770833333,-0.002206491074
0.02772916667,-0.00221613911
0.02775,-0.002226752462
0.02777083333,-0.002238842892
0.02779166667,-0.002256291918
0.0278125,-0.002274751896
0.02783333333,-0.00228722184
0.02785416667,-0.002295562066
0.027875,-0.002309072996
0.02789583333,-0.002320506377
0.02791666667,-0.002340736333
0.0279375,-0.002356867073
0.02795833333,-0.002368584042
0.02797916667,-0.00237690215
0.028,-0.002383531537
0.02802083333,-0.002371985
0.02804166667,-0.002359832404
0.0280625,-0.002342910506
0.02808333333,-0.002325512934
0.02810416667,-0.002310833894
0.028125,-0.002297094092
0.02814583333,-0.002281475579
0.02816666667,-0.002268490382
0.0281875,-0.002256990876
0.02820833333,-0.002257739194
0.02822916667,-0.002272732323
0.02825,-0.002301337197
0.02827083333,-0.002324076369
0.02829166667,-0.002338164486
0.0283125,-0.00233107456
0.02833333333,-0.002306214999
0.02835416667,-0.002280147281
0.028375,-0.002254712163
0.02839583333,-0.002244953765
0.02841666667,-0.002238759305
0.0284375,-0.002239384223
0.02845833333,-0.002235905267
0.02847916667,-0.002220737049
0.0285,-0.002198465401
0.02852083333,-0.002177688293
0.02854166667,-0.002173666609
0.0285625,-0.002178302035
0.02858333333,-0.002186539583
0.02860416667,-0.00219378015
0.028625,-0.002186435973
0.02864583333,-0.002168006729
0.02866666667,-0.002149375621
0.0286875,-0.002145186765
0.02870833333,-0.002156700939
0.02872916667,-0.002187341917
0.02875,-0.002223503543
0.02877083333,-0.002226138487
0.02879166667,-0.002223650692
0.0288125,-0.002196857473
0.02883333333,-0.002178140683
0.02885416667,-0.00216743187
0.028875,-0.002174227964
0.02889583333,-0.002182945842
0.02891666667,-0.002196074463
0.0289375,-0.002200572519
0.02895833333,-0.002185954945
0.02897916667,-0.002192978514
0.029,-0.002222689101
0.02902083333,-0.002248114673
0.02904166667,-0.002290701261
0.0290625,-0.002311802004
0.02908333333,-0.002328167204
0.02910416667,-0.002312880009
0.029125,-0.002315766178
0.02914583333,-0.002304249676
0.02916666667,-0.002303656656
0.0291875,-0.002325013978
0.02920833333,-0.002343313769
0.02922916667,-0.002364543732
0.02925,-0.002371073468
0.02927083333,-0.0023504938
0.02929166667,-0.0023045626
0.0293125,-0.002240197733
0.02933333333,-0.002181165619
0.02935416667,-0.002124786843
0.029375,-0.002116035204
0.02939583333,-0.002112807473
0.02941666667,-0.002100215526
0.0294375,-0.002086987253
0.02945833333,-0.002059348859
0.02947916667,-0.002053340198
0.0295,-0.002045433503
0.02952083333,-0.002063658321
0.02954166667,-0.0020939284
0.0295625,-0.002097913763
0.02958333333,-0.002012576675
0.02960416667,-0.001873686444
0.029625,-0.001721423469
0.02964583333,-0.001617888804
0.02966666667,-0.001557504758
0.0296875,-0.001574633876
0.02970833333,-0.001553724869
0.02972916667,-0.001488444279
0.02975,-0.001368159312
0.02977083333,-0.00124533067
0.02979166667,-0.001113724662
0.0298125,-0.001027196646
0.02983333333,-0.0009106277139
0.02985416667,-0.0008659428568
0.029875,-0.0008369029383
0.02989583333,-0.000847444986
0.02991666667,-0.0009247700218
0.0299375,-0.001129345503
0.02995833333,-0.001231757924
0.02997916667,-0.001340627088
0.03,0.002504307078
0.03002083333,0.002453002147
0.03004166667,0.002402520506
0.0300625,0.002238963731
0.03008333333,0.002195290988
0.03010416667,0.002229342237
0.030125,0.002311739372
0.03014583333,0.002393985633
0.03016666667,0.002558076521
0.0301875,0.002694490599
0.03020833333,0.002871491713
0.03022916667,0.003043914447
0.03025,0.003227289766
0.03027083333,0.003345753066
0.03029166667,0.003417452332
0.0303125,0.003434307175
0.03033333333,0.003540254431
0.03035416667,0.003692549886
0.030375,0.00389622408
0.03039583333,0.004112471361
0.03041666667,0.00425486872
0.0304375,0.004299770575
0.03045833333,0.004308094736
0.03047916667,0.004322719295
0.0305,0.004375850782
0.03052083333,0.004421648104
0.03054166667,0.004489387851
0.0305625,0.00455186842
0.03058333333,0.004613382276
0.03060416667,0.004664886743
0.030625,0.004731252789
0.03064583333,0.00485676527
0.03066666667,0.004961554427
0.0306875,0.005089276936
0.03070833333,0.005191383883
0.03072916667,0.005274577066
0.03075,0.005331478547
0.03077083333,0.005371740554
0.03079166667,0.005412071012
0.0308125,0.005430711433
0.03083333333,0.005481044762
0.03085416667,0.005546369124
0.030875,0.005580317695
0.03089583333,0.005650572944
0.03091666667,0.005657475907
0.0309375,0.005684294738
0.03095833333,0.005685228389
0.03097916667,0.005692418199
0.031,0.005705680232
0.03102083333,0.005736583378
0.03104166667,0.00579969259
0.0310625,0.005832481198
0.03108333333,0.005862299819
0.03110416667,0.005896285642
0.031125,0.005943467375
0.03114583333,0.006018057466
0.03116666667,0.006093124393
0.0311875,0.00617338391
0.03120833333,0.006213298533
0.03122916667,0.006257896777
0.03125,0.006260967813
0.03127083333,0.006260537542
0.03129166667,0.006304338574
0.0313125,0.006359779276
0.03133333333,0.006456925534
0.03135416667,0.006544936914
0.031375,0.0066248863
0.03139583333,0.00670744339
0.03141666667,0.0067825648
0.0314375,0.006877716631
0.03145833333,0.007000130136
0.03147916667,0.00712025445
0.0315,0.007253314834
0.03152083333,0.007354862522
0.03154166667,0.007438138593
0.0315625,0.007493224926
0.03158333333,0.007559596561
0.03160416667,0.007641993929
0.031625,0.007749071345
0.03164583333,0.007857519202
0.03166666667,0.007976768538
0.0316875,0.008068099618
0.03170833333,0.008113422431
0.03172916667,0.008153116331
0.03175,0.008171163499
0.03177083333,0.008197095245
0.03179166667,0.008267492987
0.0318125,0.008361326531
0.03183333333,0.008475182578
0.03185416667,0.008565333672
0.031875,0.008673592471
0.03189583333,0.008774898015
0.03191666667,0.008900475688
0.0319375,0.009038833901
0.03195833333,0.009165573865
0.03197916667,0.009299820289
0.032,0.009406332858
0.03202083333,0.009515821934
0.03204166667,0.009607917629
0.0320625,0.009698810056
0.03208333333,0.00977154728
0.03210416667,0.009864444844
0.032125,0.009935976006
0.03214583333,0.01001341548
0.03216666667,0.01008677669
0.0321875,0.01015329454
0.03220833333,0.0102435099
0.03222916667,0.01031863689
0.03225,0.01037516352
0.03227083333,0.01043847203
0.03229166667,0.01051085535
0.0323125,0.01057397388
0.03233333333,0.01065735426
0.03235416667,0.01073702518
0.032375,0.01081696339
0.03239583333,0.01090134215
0.03241666667,0.01099470351
0.0324375,0.01107177045
0.03245833333,0.0111303255
0.03247916667,0.01117521431
0.0325,0.011245423
0.03252083333,0.01129173767
0.03254166667,0.01135671977
0.0325625,0.01143169589
0.03258333333,0.0115222726
0.03260416667,0.01159837749
0.032625,0.01166515797
0.03264583333,0.01171602029
0.03266666667,0.01177065913
0.0326875,0.01182930265
0.03270833333,0.01190701593
0.03272916667,0.0120248897
0.03275,0.01211166847
0.03277083333,0.01220984757
0.03279166667,0.01228055265
0.0328125,0.012355024
0.03283333333,0.0124064479
0.03285416667,0.01247318182
0.032875,0.01257468853
0.03289583333,0.01266800519
0.03291666667,0.01277180482
0.0329375,0.01285156608
0.03295833333,0.01295611355
0.03297916667,0.01299026608
0.033,0.01306281798
0.03302083333,0.01312347781
0.03304166667,0.01319247205
0.0330625,0.01324802451
0.03308333333,0.01331393886
0.03310416667,0.01339074597
0.033125,0.01347794943
0.03314583333,0.01359357033
0.03316666667,0.01369752642
0.0331875,0.01379397511
0.03320833333,0.01388609689
0.03322916667,0.01397537068
0.03325,0.01402475871
0.03327083333,0.01408956666
0.03329166667,0.0141804684
0.0333125,0.01426808257
0.03333333333,0.01437966246
0.03335416667,0.01448309235
0.033375,0.01459989976
0.03339583333,0.01469879318
0.03341666667,0.01477568969
0.0334375,0.01483829599
0.03345833333,0.01492702588
0.03347916667,0.01499463525
0.0335,0.01508202311
0.03352083333,0.01515373494
0.03354166667,0.01523799542
0.0335625,0.01537502278
0.03358333333,0.01547346357
0.03360416667,0.01557346433
0.033625,0.01564555243
0.03364583333,0.01573763043
0.03366666667,0.01581810415
0.0336875,0.01591571607
0.03370833333,0.01603427716
0.03372916667,0.01609636843
0.03375,0.01619238965
0.03377083333,0.0162958093
0.03379166667,0.01641695574
0.0338125,0.01654338092
0.03383333333,0.0167027209
0.03385416667,0.01681159809
0.033875,0.01693867333
0.03389583333,0.01703412645
0.03391666667,0.01709285751
0.0339375,0.01722050644
0.03395833333,0.01735727303
0.03397916667,0.01749250479
0.034,0.01761179231
0.03402083333,0.01772826165
0.03404166667,0.01781426556
0.0340625,0.0179196652
0.03408333333,0.01802321896
0.03410416667,0.01812774129
0.034125,0.01824411936
0.03414583333,0.01833505742
0.03416666667,0.01847030781
0.0341875,0.01858694851
0.03420833333,0.0186850559
0.03422916667,0.01881576329
0.03425,0.01895265281
0.03427083333,0.01909246296
0.03429166667,0.01925186068
0.0343125,0.01939586364
0.03433333333,0.01955475844
0.03435416667,0.01970802061
0.034375,0.01984701492
0.03439583333,0.0200213287
0.03441666667,0.02016133815
0.0344375,0.02033058554
0.03445833333,0.02046387456
0.03447916667,0.02060687728
0.0345,0.02075166442
0.03452083333,0.02087014541
0.03454166667,0.02101338841
0.0345625,0.02114899457
0.03458333333,0.0212820787
0.03460416667,0.02141280472
0.034625,0.02153754048
0.03464583333,0.02165813185
0.03466666667,0.02178590558
0.0346875,0.02190418169
0.03470833333,0.02207004838
0.03472916667,0.0222001709
0.03475,0.02231894806
0.03477083333,0.0224242676
0.03479166667,0.02253069542
0.0348125,0.02264039032
0.03483333333,0.02274929732
0.03485416667,0.02287580818
0.034875,0.02297165245
0.03489583333,0.02314024419
0.03491666667,0.0232657548
0.0349375,0.02341760881
0.03495833333,0.02352563106
0.03497916667,0.02362943627
0.035,0.02369366772
0.03502083333,0.02376912721
0.03504166667,0.02386025712
0.0350625,0.02390474454
0.03508333333,0.02398089319
0.03510416667,0.02406366169
0.035125,0.02415896207
0.03514583333,0.02425342053
0.03516666667,0.02433708683
0.0351875,0.02440414019
0.03520833333,0.02443696931
0.03522916667,0.02449373528
0.03525,0.02451198176
0.03527083333,0.02455459908
0.03529166667,0.02459095232
0.0353125,0.02462910488
0.03533333333,0.02467257529
0.03535416667,0.02465301007
0.035375,0.02467004582
0.03539583333,0.02469302341
0.03541666667,0.02474242449
0.0354375,0.02475936152
0.03545833333,0.02477819659
0.03547916667,0.02484810352
0.0355,0.02488488331
0.03552083333,0.02493634075
0.03554166667,0.0249437876
0.0355625,0.02499472536
0.03558333333,0.02501455694
0.03560416667,0.0249960348
0.035625,0.02500394732
0.03564583333,0.0249863714
0.03566666667,0.0249771513
0.0356875,0.02493355796
0.03570833333,0.02488797717
0.03572916667,0.02483790368
0.03575,0.02475925721
0.03577083333,0.02463160641
0.03579166667,0.02453467064
0.0358125,0.02448916808
0.03583333333,0.02439334616
0.03585416667,0.02429514751
0.035875,0.02414500341
0.03589583333,0.02399901114
0.03591666667,0.02385056205
0.0359375,0.02377821878
0.03595833333,0.02364872023
0.03597916667,0.02352348529
0.036,0.02340369485
0.03602083333,0.02331268974
0.03604166667,0.02317443863
0.0360625,0.02309337258
0.03608333333,0.02301675826
0.03610416667,0.02293858118
0.036125,0.02282582782
0.03614583333,0.0227298867
0.03616666667,0.0226426851
0.0361875,0.02256602794
0.03620833333,0.02245401219
0.03622916667,0.02230551094
0.03625,0.02220973
0.03627083333,0.02205796354
0.03629166667,0.02197315358
0.0363125,0.02184084058
0.03633333333,0.02175786905
0.03635416667,0.02161873132
0.036375,0.02150785923
0.03639583333,0.02145098522
0.03641666667,0.02138845995
0.0364375,0.02129814588
0.03645833333,0.02124164626
0.03647916667,0.02116639726
0.0365,0.02106047049
0.03652083333,0.0209619347
0.03654166667,0.02090178616
0.0365625,0.02076552808
0.03658333333,0.02060580812
0.03660416667,0.02054025792
0.036625,0.02041277662
0.03664583333,0.02034734003
0.03666666667,0.02027252689
0.0366875,0.02018656582
0.03670833333,0.02008940652
0.03672916667,0.0199343618
0.03675,0.0199133791
0.03677083333,0.0198007375
0.03679166667,0.01975104958
0.0368125,0.01971806772
0.03683333333,0.01966835186
0.03685416667,0.01963367872
0.036875,0.01953917183
0.03689583333,0.01954072714
0.03691666667,0.01950435527
0.0369375,0.01948257163
0.03695833333,0.01940688305
0.03697916667,0.01933763921
0.037,0.01914215647
0.03702083333,0.01898248121
0.03704166667,0.0188174434
0.0370625,0.0189299155
0.03708333333,0.01906342059
0.03710416667,0.01891454868
0.037125,0.01896714047
0.03714583333,0.0192933958
0.03716666667,0.01953563653
0.0371875,0.01962060668
0.03720833333,0.0195244085
0.03722916667,0.01939700916
0.03725,0.0193118304
0.03727083333,0.01912260987
0.03729166667,0.01888059638
0.0373125,0.01867416874
0.03733333333,0.01843062229
0.03735416667,0.01811963692
0.037375,0.0178241916
0.03739583333,0.01758480258
0.03741666667,0.01732668653
0.0374375,0.01708854549
0.03745833333,0.0167827066
0.03747916667,0.01647235453
0.0375,0.01608534157
0.03752083333,0.01568320394
0.03754166667,0.01530040614
0.0375625,0.01495220046
0.03758333333,0.0146560166
0.03760416667,0.01436273474
0.037625,0.01405954547
0.03764583333,0.01374432445
0.03766666667,0.01341031585
0.0376875,0.01306155976
0.03770833333,0.01274921093
0.03772916667,0.0124123795
0.03775,0.01205922104
0.03777083333,0.01172710676
0.03779166667,0.01139892079
0.0378125,0.01108637638
0.03783333333,0.01079888828
0.03785416667,0.0105328504
0.037875,0.01029420365
0.03789583333,0.01004844718
0.03791666667,0.009750267491
0.0379375,0.009407651611
0.03795833333,0.009063329548
0.03797916667,0.008890161291
0.038,0.008741370402
0.03802083333,0.008619741537
0.03804166667,0.008412811905
0.0380625,0.008115760051
0.03808333333,0.007952751592
0.03810416667,0.007867662236
0.038125,0.007676442154
0.03814583333,0.007511378266
0.03816666667,0.007338694762
0.0381875,0.007205143571
0.03820833333,0.007005922496
0.03822916667,0.007023694925
0.03825,0.007036388386
0.03827083333,0.006938737817
0.03829166667,0.006752917543
0.0383125,0.006439866498
0.03833333333,0.006323548965
0.03835416667,0.00647528749
0.038375,0.006525582168
0.03839583333,0.006481020711
0.03841666667,0.006302955095
0.0384375,0.006100066472
0.03845833333,0.005872355774
0.03847916667,0.005684851669
0.0385,0.005561841652
0.03852083333,0.005388456397
0.03854166667,0.005171922967
0.0385625,0.00494511798
0.03858333333,0.004742505029
0.03860416667,0.004506790545
0.038625,0.004309748299
0.03864583333,0.004062413238
0.03866666667,0.003844735678
0.0386875,0.003614685033
0.03870833333,0.003361908719
0.03872916667,0.00317711453
0.03875,0.002927151509
0.03877083333,0.002707051113
0.03879166667,0.002453300869
0.0388125,0.002251454396
0.03883333333,0.001991164172
0.03885416667,0.001734858379
0.038875,0.001490343828
0.03889583333,0.001251501497
0.03891666667,0.001069291495
0.0389375,0.0008475672221
0.03895833333,0.0006670086877
0.03897916667,0.0004538219073
0.039,0.0002512823557
0.03902083333,8.999937563e-05
0.03904166667,-0.0001335896377
0.0390625,-0.0003564000654
0.03908333333,-0.0006558865425
0.03910416667,-0.00102526613
0.039125,-0.001359826652
0.03914583333,-0.001806875225
0.03916666667,-0.002260404872
0.0391875,-0.002208722988
0.03920833333,-0.002075773897
0.03922916667,-0.001765640336
0.03925,-0.001543376362
0.03927083333,-0.001562360092
0.03929166667,-0.001660099253
0.0393125,-0.001639390946
0.03933333333,-0.001719599823
0.03935416667,-0.001821689191
0.039375,-0.002043578308
0.03939583333,-0.002364046406
0.03941666667,-0.002799563808
0.0394375,-0.003302978352
0.03945833333,-0.003808430163
0.03947916667,-0.004349164665
0.0395,-0.004852622747
0.03952083333,-0.005396834575
0.03954166667,-0.005927860271
0.0395625,-0.006437701639
0.03958333333,-0.006969732698
0.03960416667,-0.007417372428
0.039625,-0.007884604856
0.03964583333,-0.008420748636
0.03966666667,-0.008900600486
0.0396875,-0.009455826133
0.03970833333,-0.009949635714
0.03972916667,-0.01042409614
0.03975,-0.0109035857
0.03977083333,-0.01142136566
0.03979166667,-0.01199235953
0.0398125,-0.0124576427
0.03983333333,-0.01291035395
0.03985416667,-0.01328298636
0.039875,-0.01358526386
0.03989583333,-0.01390139945
0.03991666667,-0.01422044169
0.0399375,-0.01457994524
0.03995833333,-0.01494264975
0.03997916667,-0.01525019482
0.04,-0.01561117545
0.04002083333,-0.01590915583
0.04004166667,-0.01618528925
0.0400625,-0.01644059829
0.04008333333,-0.01672506705
0.04010416667,-0.01701614819
0.040125,-0.01733956113
0.04014583333,-0.01760686934
0.04016666667,-0.01791257225
0.0401875,-0.01820032857
0.04020833333,-0.01850588806
0.04022916667,-0.0187657252
0.04025,-0.01901338622
0.04027083333,-0.01926902309
0.04029166667,-0.01949881017
0.0403125,-0.01968535595
0.04033333333,-0.0198875349
0.04035416667,-0.02008860558
0.040375,-0.02030202746
0.04039583333,-0.0204499308
0.04041666667,-0.02060897276
0.0404375,-0.02070837468
0.04045833333,-0.02085249871
0.04047916667,-0.02101222239
0.0405,-0.02118603513
0.04052083333,-0.02141608112
0.04054166667,-0.02159784921
0.0405625,-0.02181568183
0.04058333333,-0.02202687413
0.04060416667,-0.02218940668
0.040625,-0.02236565016
0.04064583333,-0.02244453691
0.04066666667,-0.02257040702
0.0406875,-0.02270846814
0.04070833333,-0.02282323316
0.04072916667,-0.02296950854
0.04075,-0.02314665169
0.04077083333,-0.02323948778
0.04079166667,-0.023374632
0.0408125,-0.02353856899
0.04083333333,-0.02361467108
0.04085416667,-0.02368530817
0.040875,-0.02387246117
0.04089583333,-0.02405542135
0.04091666667,-0.02422178723
0.0409375,-0.02439036965
0.04095833333,-0.02449517697
0.04097916667,-0.02465714514
0.041,-0.02478712797
0.04102083333,-0.02484831959
0.04104166667,-0.02501005307
0.0410625,-0.02510259114
0.04108333333,-0.02522889897
0.04110416667,-0.02529339492
0.041125,-0.02543305978
0.04114583333,-0.02556950599
0.04116666667,-0.02566813678
0.0411875,-0.02586610802
0.04120833333,-0.02603971213
0.04122916667,-0.02620458603
0.04125,-0.02644166723
0.04127083333,-0.02662159503
0.04129166667,-0.02678590268
0.0413125,-0.0269445572
0.04133333333,-0.027039418
0.04135416667,-0.02711985819
0.041375,-0.02722143382
0.04139583333,-0.02736263536
0.04141666667,-0.02749845572
0.0414375,-0.02761402167
0.04145833333,-0.02767775021
0.04147916667,-0.02779439464
0.0415,-0.02791146562
0.04152083333,-0.02800351754
0.04154166667,-0.02818430401
0.0415625,-0.02833220363
0.04158333333,-0.02850791067
0.04160416667,-0.02862774022
0.041625,-0.02874835022
0.04164583333,-0.02877143957
0.04166666667,-0.02883782424
0.0416875,-0.02890574001
0.04170833333,-0.0289388597
0.04172916667,-0.02900910378
0.04175,-0.02905213833
0.04177083333,-0.02917659469
0.04179166667,-0.02930455282
0.0418125,-0.02937277406
0.04183333333,-0.02957995608
0.04185416667,-0.02969524451
0.041875,-0.02983926423
0.04189583333,-0.02997962572
0.04191666667,-0.03007621691
0.0419375,-0.03018376604
0.04195833333,-0.03028617427
0.04197916667,-0.03039756604
0.042,-0.03051242791
0.04202083333,-0.03071715124
0.04204166667,-0.03093820997
0.0420625,-0.03108727559
0.04208333333,-0.03126358613
0.04210416667,-0.0314299427
0.042125,-0.03155175969
0.04214583333,-0.03172296286
0.04216666667,-0.03194865584
0.0421875,-0.03215260059
0.04220833333,-0.0324411951
0.04222916667,-0.03268158063
0.04225,-0.03291237727
0.04227083333,-0.03316158056
0.04229166667,-0.03343733028
0.0423125,-0.03363508359
0.04233333333,-0.03390944749
0.04235416667,-0.03406970948
0.042375,-0.03422949091
0.04239583333,-0.03437982127
0.04241666667,-0.03454359993
0.0424375,-0.03477781266
0.04245833333,-0.0349938944
0.04247916667,-0.03519498929
0.0425,-0.03529465571
0.04252083333,-0.03533437103
0.04254166667,-0.03538985178
0.0425625,-0.03542905301
0.04258333333,-0.03549118713
0.04260416667,-0.03550897539
0.042625,-0.03554052487
0.04264583333,-0.03555486724
0.04266666667,-0.03558718413
0.0426875,-0.03568800166
0.04270833333,-0.03581807017
0.04272916667,-0.03594506532
0.04275,-0.03602553159
0.04277083333,-0.03602450341
0.04279166667,-0.03602218255
0.0428125,-0.03610426188
0.04283333333,-0.03616122156
0.04285416667,-0.03619097918
0.042875,-0.03618431091
0.04289583333,-0.03613019362
0.04291666667,-0.03607686237
0.0429375,-0.03602627665
0.04295833333,-0.03595618159
0.04297916667,-0.03588359803
0.043,-0.03581477329
0.04302083333,-0.03566208482
0.04304166667,-0.03558573872
0.0430625,-0.03550393134
0.04308333333,-0.03548131883
0.04310416667,-0.03540467098
0.043125,-0.03535817191
0.04314583333,-0.03533623368
0.04316666667,-0.03527288884
0.0431875,-0.03525721654
0.04320833333,-0.03523112833
0.04322916667,-0.03524469957
0.04325,-0.03525497392
0.04327083333,-0.03526838496
0.04329166667,-0.03533798456
0.0433125,-0.03533594683
0.04333333333,-0.03539573029
0.04335416667,-0.03543112427
0.043375,-0.03547297418
0.04339583333,-0.03553323075
0.04341666667,-0.03557000682
0.0434375,-0.03556920215
0.04345833333,-0.03568867594
0.04347916667,-0.0357327275
0.0435,-0.03581103683
0.04352083333,-0.03581546992
0.04354166667,-0.03580234945
0.0435625,-0.03579066321
0.04358333333,-0.03578922153
0.04360416667,-0.03583484516
0.043625,-0.03583734855
0.04364583333,-0.03578513116
0.04366666667,-0.03577785194
0.0436875,-0.03575092554
0.04370833333,-0.03581818566
0.04372916667,-0.03573634475
0.04375,-0.03543502092
0.04377083333,-0.03507198021
0.04379166667,-0.03473519906
0.0438125,-0.03446535766
0.04383333333,-0.0342367962
0.04385416667,-0.03412474692
0.043875,-0.03404318541
0.04389583333,-0.03405307978
0.04391666667,-0.03404060379
0.0439375,-0.03397901729
0.04395833333,-0.03400948271
0.04397916667,-0.03393236175
0.044,-0.0338813886
0.04402083333,-0.03375246376
0.04404166667,-0.03370931745
0.0440625,-0.03375810385
0.04408333333,-0.03376690671
0.04410416667,-0.03380681202
0.044125,-0.03385831043
0.04414583333,-0.03398014233
0.04416666667,-0.03396996856
0.0441875,-0.03393691406
0.04420833333,-0.03391322121
0.04422916667,-0.033899609
0.04425,-0.03404065222
0.04427083333,-0.03408762813
0.04429166667,-0.03422188759
0.0443125,-0.03438293934
0.04433333333,-0.03462047875
0.04435416667,-0.03486606851
0.044375,-0.03512628376
0.04439583333,-0.03541779891
0.04441666667,-0.0357494019
0.0444375,-0.03610050678
0.04445833333,-0.03635231405
0.04447916667,-0.03666593507
0.0445,-0.03701538593
0.04452083333,-0.03734634072
0.04454166667,-0.03773063421
0.0445625,-0.03805576637
0.04458333333,-0.03840017691
0.04460416667,-0.03870648891
0.044625,-0.03899103776
0.04464583333,-0.03929387406
0.04466666667,-0.03958422691
0.0446875,-0.0399126038
0.04470833333,-0.04029356316
0.04472916667,-0.04061111063
0.04475,-0.04093715549
0.04477083333,-0.04119838402
0.04479166667,-0.04152464494
0.0448125,-0.04174889252
0.04483333333,-0.04201362282
0.04485416667,-0.04227220267
0.044875,-0.04252193868
0.04489583333,-0.04268917814
0.04491666667,-0.04286121204
0.0449375,-0.04294161871
0.04495833333,-0.0430534929
0.04497916667,-0.04311603308
0.045,-0.04319514707
0.04502083333,-0.04326942191
0.04504166667,-0.04328065738
0.0450625,-0.04329130799
0.04508333333,-0.04327204078
0.04510416667,-0.04317002743
0.045125,-0.04313215613
0.04514583333,-0.04297174513
0.04516666667,-0.04284666851
0.0451875,-0.04266528785
0.04520833333,-0.04249025881
0.04522916667,-0.0422969386
0.04525,-0.04218372703
0.04527083333,-0.04204039648
0.04529166667,-0.04189661145
0.0453125,-0.04184868932
0.04533333333,-0.04177948833
0.04535416667,-0.04172217101
0.045375,-0.0416123718
0.04539583333,-0.04148106277
0.04541666667,-0.04136772826
0.0454375,-0.04124332219
0.04545833333,-0.04118235409
0.04547916667,-0.04109062627
0.0455,-0.04079609737
0.04552083333,-0.04058256373
0.04554166667,-0.04050391167
0.0455625,-0.04042366892
0.04558333333,-0.04044934362
0.04560416667,-0.04043873027
0.045625,-0.04041367024
0.04564583333,-0.04040446132
0.04566666667,-0.0403435342
0.0456875,-0.04018693417
0.04570833333,-0.04014007375
0.04572916667,-0.03998881578
0.04575,-0.03990222141
0.04577083333,-0.03982407972
0.04579166667,-0.03976706043
0.0458125,-0.03967121616
0.04583333333,-0.03955626488
0.04585416667,-0.03940252587
0.045875,-0.0392110087
0.04589583333,-0.0390477106
0.04591666667,-0.03885655478
0.0459375,-0.03865838051
0.04595833333,-0.0385048762
0.04597916667,-0.03838831931
0.046,-0.0382748358
0.04602083333,-0.03817687556
0.04604166667,-0.03801648319
0.0460625,-0.03788993508
0.04608333333,-0.03771289811
0.04610416667,-0.03761644289
0.046125,-0.03756120801
0.04614583333,-0.03740039468
0.04616666667,-0.037312489
0.0461875,-0.03721958399
0.04620833333,-0.03714976087
0.04622916667,-0.03709130362
0.04625,-0.03697312623
0.04627083333,-0.03678869084
0.04629166667,-0.03664145246
0.0463125,-0.03641115502
0.04633333333,-0.03627126291
0.04635416667,-0.03612946346
0.046375,-0.03606841341
0.04639583333,-0.03591252118
0.04641666667,-0.03582539782
0.0464375,-0.03566434234
0.04645833333,-0.03552952036
0.04647916667,-0.03533562273
0.0465,-0.03512857854
0.04652083333,-0.03477687761
0.04654166667,-0.03419439867
0.0465625,-0.03340357542
0.04658333333,-0.03239925206
0.04660416667,-0.03135557473
0.046625,-0.03042283095
0.04664583333,-0.02959643677
0.04666666667,-0.02897046879
0.0466875,-0.02835327573
0.04670833333,-0.02774745598
0.04672916667,-0.02711711451
0.04675,-0.02669554763
0.04677083333,-0.026275713
0.04679166667,-0.02588283829
0.0468125,-0.02565450408
0.04683333333,-0.02534086816
0.04685416667,-0.02493484691
0.046875,-0.0245391205
0.04689583333,-0.02386597171
0.04691666667,-0.0232530795
0.0469375,-0.0226598531
0.04695833333,-0.02216430567
0.04697916667,-0.02170332894
0.047,-0.02124188095
0.04702083333,-0.02087326348
0.04704166667,-0.02041394077
0.0470625,-0.01985642128
0.04708333333,-0.01855351962
0.04710416667,-0.01687153801
0.047125,-0.01546030957
0.04714583333,-0.01425397582
0.04716666667,-0.01339858212
0.0471875,-0.01267847326
0.04720833333,-0.01221849583
0.04722916667,-0.01174540631
0.04725,-0.01079756767
0.04727083333,-0.009511149488
0.04729166667,-0.008230907843
0.0473125,-0.007063724101
0.04733333333,-0.006283651572
0.04735416667,-0.005840978585
0.047375,-0.005472616293
0.04739583333,-0.005102581345
0.04741666667,-0.004499251954
0.0474375,-0.003882390447
0.04745833333,-0.003290839493
0.04747916667,-0.002789363964
0.0475,-0.0023954832
0.04752083333,-0.001901054056
0.04754166667,-0.001574915368
0.0475625,-0.001165827038
0.04758333333,-0.0007845453219
0.04760416667,-0.0004846652737
0.047625,-0.0002919955878
0.04764583333,-9.651784785e-05
0.04766666667,0.0002650220413
0.0476875,0.0008576957043
0.04770833333,0.001472780015
0.04772916667,0.001870122389
0.04775,0.002342864405
0.04777083333,0.002813803032
0.04779166667,0.003244367894
0.0478125,0.003571375273
0.04783333333,0.003887639614
0.04785416667,0.004367438611
0.047875,0.00470956834
0.04789583333,0.005226116627
0.04791666667,0.00571438577
0.0479375,0.006287322845
0.04795833333,0.006935471669
0.04797916667,0.007281806786
0.048,0.00753132347
0.04802083333,0.007684802637
0.04804166667,0.007738052402
0.0480625,0.007853957824
0.04808333333,0.007830486633
0.04810416667,0.007803647313
0.048125,0.007966825739
0.04814583333,0.00835645292
0.04816666667,0.008677557111
0.0481875,0.008935296908
0.04820833333,0.009088116698
0.04822916667,0.009437431581
0.04825,0.009592429735
0.04827083333,0.00968952477
0.04829166667,0.00978745427
0.0483125,0.009778174572
0.04833333333,0.009964491241
0.04835416667,0.01014193334
0.048375,0.01025321614
0.04839583333,0.01025957987
0.04841666667,0.01040069014
0.0484375,0.01079975162
0.04845833333,0.01129508112
0.04847916667,0.01163566671
0.0485,0.01200069953
0.04852083333,0.01297365222
0.04854166667,0.01408904325
0.0485625,0.0153633114
0.04858333333,0.01657893136
0.04860416667,0.01815882139
0.048625,0.01945390925
0.04864583333,0.02032725886
0.04866666667,0.02083963342
0.0486875,0.02114900202
0.04870833333,0.02137435041
0.04872916667,0.02148176357
0.04875,0.02149508335
0.04877083333,0.0213820301
0.04879166667,0.02113840356
0.0488125,0.02081935108
0.04883333333,0.02047939412
0.04885416667,0.02015047148
0.048875,0.01986273937
0.04889583333,0.01959607936
0.04891666667,0.01934703998
0.0489375,0.01917269081
0.04895833333,0.01895477623
0.04897916667,0.01875912212
0.049,0.01856346615
0.04902083333,0.01833127253
0.04904166667,0.01813874207
0.0490625,0.01796843857
0.04908333333,0.01785892248
0.04910416667,0.01778023504
0.049125,0.01779092662
0.04914583333,0.01782537811
0.04916666667,0.01777408831
0.0491875,0.01772958227
0.04920833333,0.01760577597
0.04922916667,0.0174921006
0.04925,0.01742498204
0.04927083333,0.01736296341
0.04929166667,0.01731050014
0.0493125,0.01730664447
0.04933333333,0.01723524183
0.04935416667,0.01728984341
0.049375,0.01733909547
0.04939583333,0.01739783958
0.04941666667,0.01751966216
0.0494375,0.01756875962
0.04945833333,0.01760271937
0.04947916667,0.01769459248
0.0495,0.01775499806
0.04952083333,0.01784333587
0.04954166667,0.01796539873
0.0495625,0.01804632135
0.04958333333,0.01813575439
0.04960416667,0.01819042489
0.049625,0.0182207264
0.04964583333,0.0183389131
0.04966666667,0.01844239235
0.0496875,0.01861684769
0.04970833333,0.01874181069
0.04972916667,0.01893183962
0.04975,0.0190507751
0.04977083333,0.01920519024
0.04979166667,0.01935406588
0.0498125,0.01950440183
0.04983333333,0.01967768185
0.04985416667,0.01983605884
0.049875,0.02004938386
0.04989583333,0.02019569464
0.04991666667,0.02033364773
0.0499375,0.02045965753
0.04995833333,0.02055526897
0.04997916667,0.02071318775
0.05,0.02095213532
0.05002083333,0.02120154724
0.05004166667,0.0214061588
0.0500625,0.02170150727
0.05008333333,0.02192137949
0.05010416667,0.02214145102
0.050125,0.02236184664
0.05014583333,0.02259544283
0.05016666667,0.02280936576
0.0501875,0.02302603424
0.05020833333,0.02323182113
0.05022916667,0.02344205603
0.05025,0.02359299734
0.05027083333,0.02381741442
0.05029166667,0.02398044802
0.0503125,0.02414979041
0.05033333333,0.02429657243
0.05035416667,0.02437784523
0.050375,0.02448678389
0.05039583333,0.02464815602
0.05041666667,0.0247883983
0.0504375,0.0249874983
0.05045833333,0.0251364857
0.05047916667,0.02526780963
0.0505,0.02541901544
0.05052083333,0.02548789419
0.05054166667,0.02556388825
0.0505625,0.02561656386
0.05058333333,0.02565040626
0.05060416667,0.02569521219
0.050625,0.02568750083
0.05064583333,0.025685139
0.05066666667,0.0256159734
0.0506875,0.02562459931
0.05070833333,0.02559844218
0.05072916667,0.0256397929
0.05075,0.02570619993
0.05077083333,0.02573826909
0.05079166667,0.02581235953
0.0508125,0.02588094957
0.05083333333,0.02595980279
0.05085416667,0.02603920922
0.050875,0.02609938756
0.05089583333,0.02614190988
0.05091666667,0.02619205602
0.0509375,0.0263569057
0.05095833333,0.02653278038
0.05097916667,0.0266581811
0.051,0.02672001533
0.05102083333,0.0267459508
0.05104166667,0.02676569298
0.0510625,0.0267986469
0.05108333333,0.02681781724
0.05110416667,0.02689302526
0.051125,0.02694853954
0.05114583333,0.02701434866
0.05116666667,0.02710322104
0.0511875,0.02722457796
0.05120833333,0.02733189613
0.05122916667,0.02750622481
0.05125,0.02763539553
0.05127083333,0.02781870775
0.05129166667,0.02794682421
0.0513125,0.02804134786
0.05133333333,0.02810002863
0.05135416667,0.0281472411
0.051375,0.02816941403
0.05139583333,0.02820619754
0.05141666667,0.02826218121
0.0514375,0.02833136171
0.05145833333,0.02838929743
0.05147916667,0.02848308347
0.0515,0.02856155485
0.05152083333,0.02869174071
0.05154166667,0.0287423674
0.0515625,0.02880311385
0.05158333333,0.02882539295
0.05160416667,0.02883403562
0.051625,0.02886009775
0.05164583333,0.02881582454
0.05166666667,0.02881280892
0.0516875,0.02876882441
0.05170833333,0.02871520445
0.05172916667,0.02871136554
0.05175,0.02866315283
0.05177083333,0.02870931663
0.05179166667,0.02876607142
0.0518125,0.02888750471
0.05183333333,0.02899982221
0.05185416667,0.0290120896
0.051875,0.02911909297
0.05189583333,0.02923896536
0.05191666667,0.02929454856
0.0519375,0.02939623594
0.05195833333,0.02947425656
0.05197916667,0.02955108322
0.052,0.02970769256
0.05202083333,0.02985257842
0.05204166667,0.03005915135
0.0520625,0.03024577722
0.05208333333,0.03042790107
0.05210416667,0.030592544
0.052125,0.03074244224
0.05214583333,0.03090400621
0.05216666667,0.03105650842
0.0521875,0.03130197525
0.05220833333,0.03156423196
0.05222916667,0.03192385286
0.05225,0.03223170713
0.05227083333,0.03248506784
0.05229166667,0.03267710283
0.0523125,0.03283232078
0.05233333333,0.03294542804
0.05235416667,0.03303910047
0.052375,0.03319435194
0.05239583333,0.03336609155
0.05241666667,0.03351511434
0.0524375,0.03361990675
0.05245833333,0.03375624865
0.05247916667,0.03389319032
0.0525,0.03403748199
0.05252083333,0.0341517292
0.05254166667,0.03421434388
0.0525625,0.03430887684
0.05258333333,0.03438850492
0.05260416667,0.03442284092
0.052625,0.03444970399
0.05264583333,0.03448453546
0.05266666667,0.03445436433
0.0526875,0.03446321189
0.05270833333,0.03442008421
0.05272916667,0.03435785323
0.05275,0.03431443125
0.05277083333,0.03420639038
0.05279166667,0.03408201784
0.0528125,0.03401659802
0.05283333333,0.03398338333
0.05285416667,0.03394664451
0.052875,0.03388964757
0.05289583333,0.03385063633
0.05291666667,0.03377053514
0.0529375,0.03374262899
0.05295833333,0.03374701366
0.05297916667,0.03372083604
0.053,0.03377297148
0.05302083333,0.0337776579
0.05304166667,0.03378031775
0.0530625,0.03379658237
0.05308333333,0.03377144784
0.05310416667,0.03384044394
0.053125,0.03390138596
0.05314583333,0.03389711678
0.05316666667,0.03390245885
0.0531875,0.0338732712
0.05320833333,0.03387058899
0.05322916667,0.03381557018
0.05325,0.03380710259
0.05327083333,0.03383461758
0.05329166667,0.03387834504
0.0533125,0.03402335197
0.05333333333,0.03416270018
0.05335416667,0.03432745114
0.053375,0.03451757878
0.05339583333,0.03479710221
0.05341666667,0.03502561152
0.0534375,0.03522416204
0.05345833333,0.03536253422
0.05347916667,0.03548143804
0.0535,0.03559149057
0.05352083333,0.03564393148
0.05354166667,0.03570929915
0.0535625,0.03578455374
0.05358333333,0.03585611284
0.05360416667,0.03588072211
0.053625,0.03591123596
0.05364583333,0.03595265001
0.05366666667,0.03603764996
0.0536875,0.03616619483
0.05370833333,0.03628533334
0.05372916667,0.03641245514
0.05375,0.03646655753
0.05377083333,0.03648967296
0.05379166667,0.03650341555
0.0538125,0.03650383279
0.05383333333,0.0365203172
0.05385416667,0.03654968739
0.053875,0.03656474128
0.05389583333,0.03660769016
0.05391666667,0.03663650155
0.0539375,0.0366698578
0.05395833333,0.03666784614
0.05397916667,0.03667783737
0.054,0.03675651178
0.05402083333,0.03681347519
0.05404166667,0.03683007136
0.0540625,0.03679750487
0.05408333333,0.03678990155
0.05410416667,0.03679798171
0.054125,0.03683129326
0.05414583333,0.03689837456
0.05416666667,0.03697571531
0.0541875,0.03704774007
0.05420833333,0.03709641472
0.05422916667,0.03719418868
0.05425,0.03724084422
0.05427083333,0.03734912351
0.05429166667,0.03744610772
0.0543125,0.03758527711
0.05433333333,0.0377921015
0.05435416667,0.03793772683
0.054375,0.03815838695
0.05439583333,0.03833827376
0.05441666667,0.03848699108
0.0544375,0.03869013116
0.05445833333,0.03879312798
0.05447916667,0.03894924745
0.0545,0.0391462557
0.05452083333,0.03935952857
0.05454166667,0.03950407729
0.0545625,0.03965873644
0.05458333333,0.03984968364
0.05460416667,0.04002920911
0.054625,0.04022235423
0.05464583333,0.04037914425
0.05466666667,0.04056633636
0.0546875,0.04075817391
0.05470833333,0.0409447886
0.05472916667,0.04115248099
0.05475,0.04137285799
0.05477083333,0.04168559983
0.05479166667,0.04195230827
0.0548125,0.04222252592
0.05483333333,0.04246301949
0.05485416667,0.04262116551
0.054875,0.04277019948
0.05489583333,0.04283539578
0.05491666667,0.04290604591
0.0549375,0.04294677451
0.05495833333,0.04295495152
0.05497916667,0.04304089025
0.055,0.04307101667
0.05502083333,0.04305897281
0.05504166667,0.04302984476
0.0550625,0.04295616969
0.05508333333,0.04294908792
0.05510416667,0.0429594852
0.055125,0.04286639765
0.05514583333,0.0428150706
0.05516666667,0.04271594435
0.0551875,0.04265324771
0.05520833333,0.0424897261
0.05522916667,0.04227694869
0.05525,0.04213124514
0.05527083333,0.04189245775
0.05529166667,0.04168806225
0.0553125,0.04146674275
0.05533333333,0.04123334587
0.05535416667,0.0409892574
0.055375,0.04081724584
0.05539583333,0.04054695368
0.05541666667,0.04036544263
0.0554375,0.04017503932
0.05545833333,0.03995622322
0.05547916667,0.03976731747
0.0555,0.03953167051
0.05552083333,0.03936185315
0.05554166667,0.03923182935
0.0555625,0.03918094561
0.05558333333,0.03908123076
0.05560416667,0.03897447512
0.055625,0.03885287791
0.05564583333,0.03869004175
0.05566666667,0.03856244683
0.0556875,0.03843674809
0.05570833333,0.03834443167
0.05572916667,0.0381818451
0.05575,0.03804909065
0.05577083333,0.03791896626
0.05579166667,0.03777445853
0.0558125,0.0376804024
0.05583333333,0.03760213777
0.05585416667,0.03757339343
0.055875,0.03752949461
0.05589583333,0.03746734932
0.05591666667,0.03736654669
0.0559375,0.03722378239
0.05595833333,0.03715583682
0.05597916667,0.0370702818
0.056,0.03692066669
0.05602083333,0.03678209335
0.05604166667,0.03662886843
0.0560625,0.03655827418
0.05608333333,0.03652508557
0.05610416667,0.03637548909
0.056125,0.03624601662
0.05614583333,0.0360889025
0.05616666667,0.03595172986
0.0561875,0.03577943891
0.05620833333,0.03567834944
0.05622916667,0.03549876809
0.05625,0.03536754102
0.05627083333,0.03522113711
0.05629166667,0.03511220217
0.0563125,0.03500798345
0.05633333333,0.0349265635
0.05635416667,0.03481483459
0.056375,0.03460483253
0.05639583333,0.03445326164
0.05641666667,0.03425043449
0.0564375,0.03398298845
0.05645833333,0.03372862563
0.05647916667,0.03347493708
0.0565,0.0332403183
0.05652083333,0.03290133178
0.05654166667,0.03247762099
0.0565625,0.03202210739
0.05658333333,0.03155623004
0.05660416667,0.03114620596
0.056625,0.03075363301
0.05664583333,0.03033593297
0.05666666667,0.02999892645
0.0566875,0.02966112085
0.05670833333,0.02936191671
0.05672916667,0.02908837795
0.05675,0.02883107774
0.05677083333,0.02851992846
0.05679166667,0.02822299488
0.0568125,0.02799127623
0.05683333333,0.02778784931
0.05685416667,0.02757531404
0.056875,0.02738627046
0.05689583333,0.02724388614
0.05691666667,0.02708312497
0.0569375,0.02691137046
0.05695833333,0.02670747042
0.05697916667,0.02655327134
0.057,0.02636828087
0.05702083333,0.02619338036
0.05704166667,0.02602061257
0.0570625,0.02585974336
0.05708333333,0.02561178431
0.05710416667,0.02537295967
0.057125,0.02494600974
0.05714583333,0.02471489273
0.05716666667,0.02481746301
0.0571875,0.025048282
0.05720833333,0.02542543225
0.05722916667,0.02583707869
0.05725,0.02719288133
0.05727083333,0.02834415063
0.05729166667,0.02903320827
0.0573125,0.02946117334
0.05733333333,0.02948623896
0.05735416667,0.02943627723
0.057375,0.02932580188
0.05739583333,0.02915226668
0.05741666667,0.0287622828
0.0574375,0.02824571542
0.05745833333,0.02766627632
0.05747916667,0.02702584863
0.0575,0.02636625804
0.05752083333,0.02576904558
0.05754166667,0.0251758527
0.0575625,0.02452256344
0.05758333333,0.02387439087
0.05760416667,0.02314719558
0.057625,0.02245493792
0.05764583333,0.02183340304
0.05766666667,0.02122222632
0.0576875,0.02052835561
0.05770833333,0.0198716186
0.05772916667,0.01914318651
0.05775,0.01841392927
0.05777083333,0.01772079803
0.05779166667,0.01706996188
0.0578125,0.01656671427
0.05783333333,0.0160144493
0.05785416667,0.01550417021
0.057875,0.01498666778
0.05789583333,0.01443926059
0.05791666667,0.01389967557
0.0579375,0.01336643845
0.05795833333,0.01285147574
0.05797916667,0.01229668595
0.058,0.0117767984
0.05802083333,0.01135074347
0.05804166667,0.01092533953
0.0580625,0.01047391724
0.05808333333,0.01006994676
0.05810416667,0.009591985494
0.058125,0.009112982079
0.05814583333,0.008560563438
0.05816666667,0.008060463704
0.0581875,0.007824447006
0.05820833333,0.007829054259
0.05822916667,0.008422430605
0.05825,0.009055560455
0.05827083333,0.009620881639
0.05829166667,0.010223669
0.0583125,0.01106225699
0.05833333333,0.01188140549
0.05835416667,0.01250899769
0.058375,0.01300306618
0.05839583333,0.0132593438
0.05841666667,0.01341210958
0.0584375,0.01346030459
0.05845833333,0.01340495422
0.05847916667,0.01324262097
0.0585,0.01308190636
0.05852083333,0.01284203585
0.05854166667,0.01254948601
0.0585625,0.01232356206
0.05858333333,0.01198269054
0.05860416667,0.01167252567
0.058625,0.01128154714
0.05864583333,0.01093318593
0.05866666667,0.01050549839
0.0586875,0.01010817196
0.05870833333,0.009621590376
0.05872916667,0.009069018997
0.05875,0.008592345752
0.05877083333,0.00802312512
0.05879166667,0.007617806084
0.0588125,0.007037108298
0.05883333333,0.006458739284
0.05885416667,0.005877527874
0.058875,0.005270866677
0.05889583333,0.004843053874
0.05891666667,0.004332373384
0.0589375,0.003777196864
0.05895833333,0.003226561006
0.05897916667,0.002685820684
0.059,0.002151488326
0.05902083333,0.001586069586
0.05904166667,0.001018921495
0.0590625,0.0003173132427
0.05908333333,-0.0002952929353
0.05910416667,-0.0009117630543
0.059125,-0.001314247376
0.05914583333,-0.001822891645
0.05916666667,-0.002044565976
0.0591875,-0.00201499532
0.05920833333,-0.001649540034
0.05922916667,-0.001067515812
0.05925,-0.0008701911429
0.05927083333,-0.0007238626713
0.05929166667,-0.0009146148805
0.0593125,-0.001260389457
0.05933333333,-0.001707580988
0.05935416667,-0.002250564517
0.059375,-0.002845218871
0.05939583333,-0.003501286265
0.05941666667,-0.004159822129
0.0594375,-0.004838083871
0.05945833333,-0.005475966725
0.05947916667,-0.00607308466
0.0595,-0.006733715069
0.05952083333,-0.007403384428
0.05954166667,-0.008049310185
0.0595625,-0.008754631504
0.05958333333,-0.009457143955
0.05960416667,-0.0101766903
0.059625,-0.0109476475
0.05964583333,-0.01169306878
0.05966666667,-0.01240190491
0.0596875,-0.01314685028
0.05970833333,-0.01393565256
0.05972916667,-0.01463491004
0.05975,-0.01531054545
0.05977083333,-0.01597092673
0.05979166667,-0.01670160145
0.0598125,-0.01741139777
0.05983333333,-0.01808721572
0.05985416667,-0.01877231523
0.059875,-0.01943884976
0.05989583333,-0.02014122903
0.05991666667,-0.02076389827
0.0599375,-0.02133270539
0.05995833333,-0.02187109366
0.05997916667,-0.0223659575
0.06,-0.02287766896
0.06002083333,-0.02331783064
0.06004166667,-0.02373254485
0.0600625,-0.02410289086
0.06008333333,-0.02452333458
0.06010416667,-0.02491671965
0.060125,-0.02527663484
0.06014583333,-0.02574177459
0.06016666667,-0.02615085989
0.0601875,-0.02656398155
0.06020833333,-0.02699001878
0.06022916667,-0.02741897851
0.06025,-0.02784084901
0.06027083333,-0.02821872942
0.06029166667,-0.028534716
0.0603125,-0.02882045321
0.06033333333,-0.02910305746
0.06035416667,-0.02935349941
0.060375,-0.02953922935
0.06039583333,-0.02967700176
0.06041666667,-0.02990551665
0.0604375,-0.03007940203
0.06045833333,-0.03014772013
0.06047916667,-0.03028888628
0.0605,-0.03045392595
0.06052083333,-0.03058301099
0.06054166667,-0.03073509037
0.0605625,-0.03081482463
0.06058333333,-0.03086865321
0.06060416667,-0.0309821479
0.060625,-0.03099907376
0.06064583333,-0.0310850367
0.06066666667,-0.03113660589
0.0606875,-0.03117588349
0.06070833333,-0.03122050688
0.06072916667,-0.03121543862
0.06075,-0.03126651421
0.06077083333,-0.03131534159
0.06079166667,-0.03141033277
0.0608125,-0.03147923946
0.06083333333,-0.03154226393
0.06085416667,-0.03166890517
0.060875,-0.03171166033
0.06089583333,-0.03176519647
0.06091666667,-0.03185107931
0.0609375,-0.03196552396
0.06095833333,-0.0321037136
0.06097916667,-0.03220701218
0.061,-0.03234465048
0.06102083333,-0.03239709884
0.06104166667,-0.03250181675
0.0610625,-0.03271489218
0.06108333333,-0.03295340389
0.06110416667,-0.03317802399
0.061125,-0.033411026
0.06114583333,-0.03363517672
0.06116666667,-0.0338418968
0.0611875,-0.03406863287
0.06120833333,-0.03429562971
0.06122916667,-0.03450839221
0.06125,-0.03466522694
0.06127083333,-0.03484858572
0.06129166667,-0.03501364961
0.0613125,-0.03515188396
0.06133333333,-0.03529967368
0.06135416667,-0.03544247895
0.061375,-0.03553978726
0.06139583333,-0.03559097275
0.06141666667,-0.0356221199
0.0614375,-0.03569092602
0.06145833333,-0.03577080742
0.06147916667,-0.03590796515
0.0615,-0.03603996336
0.06152083333,-0.03615260124
0.06154166667,-0.03626020625
0.0615625,-0.03633224592
0.06158333333,-0.03642899543
0.06160416667,-0.03653779998
0.061625,-0.03658447787
0.06164583333,-0.03663861006
0.06166666667,-0.03667138889
0.0616875,-0.03666797653
0.06170833333,-0.03674768656
0.06172916667,-0.03685552999
0.06175,-0.03699567169
0.06177083333,-0.03711745515
0.06179166667,-0.03726178408
0.0618125,-0.03739210963
0.06183333333,-0.03750778735
0.06185416667,-0.03766577318
0.061875,-0.03776197881
0.06189583333,-0.03787312657
0.06191666667,-0.03793330863
0.0619375,-0.0380088836
0.06195833333,-0.03813191876
0.06197916667,-0.03824689239
0.062,-0.03841484711
0.06202083333,-0.03857281804
0.06204166667,-0.03871736303
0.0620625,-0.03884743527
0.06208333333,-0.03890210763
0.06210416667,-0.03892318904
0.062125,-0.03906230628
0.06214583333,-0.03921135888
0.06216666667,-0.03937293217
0.0621875,-0.0395048745
0.06220833333,-0.03963509202
0.06222916667,-0.03979247808
0.06225,-0.03998200223
0.06227083333,-0.04013519362
0.06229166667,-0.04030368105
0.0623125,-0.04047250748
0.06233333333,-0.04063279554
0.06235416667,-0.04083901271
0.062375,-0.04103237391
0.06239583333,-0.0412065573
0.06241666667,-0.04135980085
0.0624375,-0.04149291292
0.06245833333,-0.04162049294
0.06247916667,-0.04174631089
0.0625,-0.04184371978
0.06252083333,-0.04196107388
0.06254166667,-0.04204260558
0.0625625,-0.04214664921
0.06258333333,-0.04223778099
0.06260416667,-0.04232800379
0.062625,-0.04241015017
0.06264583333,-0.04253422841
0.06266666667,-0.04260313511
0.0626875,-0.04263223335
0.06270833333,-0.04268049076
0.06272916667,-0.04271111637
0.06275,-0.04278950766
0.06277083333,-0.04283717647
0.06279166667,-0.04291434214
0.0628125,-0.0430358611
0.06283333333,-0.0430881083
0.06285416667,-0.04308639839
0.062875,-0.04306795076
0.06289583333,-0.04311683029
0.06291666667,-0.04308777303
0.0629375,-0.04309363663
0.06295833333,-0.04307820648
0.06297916667,-0.04307214916
0.063,-0.04308053851
0.06302083333,-0.04303726554
0.06304166667,-0.0430329293
0.0630625,-0.0430400148
0.06308333333,-0.04306622595
0.06310416667,-0.04303710163
0.063125,-0.04301726073
0.06314583333,-0.04306868091
0.06316666667,-0.04306759313
0.0631875,-0.04297139123
0.06320833333,-0.0429408811
0.06322916667,-0.0429289937
0.06325,-0.04298571497
0.06327083333,-0.0429931432
0.06329166667,-0.04295119271
0.0633125,-0.04292939603
0.06333333333,-0.04282259569
0.06335416667,-0.04270433635
0.063375,-0.04260873049
0.06339583333,-0.04251087457
0.06341666667,-0.04237374291
0.0634375,-0.04223447293
0.06345833333,-0.04213249683
0.06347916667,-0.04199402779
0.0635,-0.04187311977
0.06352083333,-0.04178860039
0.06354166667,-0.04163425416
0.0635625,-0.04142961651
0.06358333333,-0.0411939472
0.06360416667,-0.04102142528
0.063625,-0.04085265473
0.06364583333,-0.04065134749
0.06366666667,-0.04043594375
0.0636875,-0.04023801908
0.06370833333,-0.0400759615
0.06372916667,-0.03989426047
0.06375,-0.03967123479
0.06377083333,-0.03949134424
0.06379166667,-0.03935143352
0.0638125,-0.03919119388
0.06383333333,-0.03902887926
0.06385416667,-0.0388851054
0.063875,-0.03878677636
0.06389583333,-0.03874791414
0.06391666667,-0.03871868923
0.0639375,-0.03874772042
0.06395833333,-0.03884169087
0.06397916667,-0.03889616579
0.064,-0.03905355185
0.06402083333,-0.03914202377
0.06404166667,-0.03925304487
0.0640625,-0.03945622221
0.06408333333,-0.0396242924
0.06410416667,-0.03985733911
0.064125,-0.04009741545
0.06414583333,-0.040387135
0.06416666667,-0.04074956849
0.0641875,-0.04112954438
0.06420833333,-0.04149797186
0.06422916667,-0.04190758616
0.06425,-0.04222914204
0.06427083333,-0.04255074263
0.06429166667,-0.04288708791
0.0643125,-0.04328359663
0.06433333333,-0.04367047921
0.06435416667,-0.04400501773
0.064375,-0.04435386136
0.06439583333,-0.04472688958
0.06441666667,-0.04509118944
0.0644375,-0.04546293989
0.06445833333,-0.04587110505
0.06447916667,-0.04627025127
0.0645,-0.04661957175
0.06452083333,-0.04696627706
0.06454166667,-0.04727405682
0.0645625,-0.04758274183
0.06458333333,-0.04787959531
0.06460416667,-0.04820082709
0.064625,-0.04856933653
0.06464583333,-0.04891191423
0.06466666667,-0.04923175648
0.0646875,-0.04943557829
0.06470833333,-0.04965668917
0.06472916667,-0.04994542524
0.06475,-0.05021177605
0.06477083333,-0.05048606917
0.06479166667,-0.05073257536
0.0648125,-0.05094400793
0.06483333333,-0.05114854872
0.06485416667,-0.05133098364
0.064875,-0.05145942792
0.06489583333,-0.05163852125
0.06491666667,-0.05179242045
0.0649375,-0.0519208163
0.06495833333,-0.05205080658
0.06497916667,-0.05209740996
0.065,-0.0521796532
0.06502083333,-0.05220816284
0.06504166667,-0.05225099251
0.0650625,-0.05219850689
0.06508333333,-0.05205630139
0.06510416667,-0.05190428346
0.065125,-0.0517908968
0.06514583333,-0.0517273359
0.06516666667,-0.05166069046
0.0651875,-0.05161241069
0.06520833333,-0.05150497332
0.06522916667,-0.05140038207
0.06525,-0.0513188988
0.06527083333,-0.05126556382
0.06529166667,-0.05124777555
0.0653125,-0.05124464259
0.06533333333,-0.05123840272
0.06535416667,-0.05120155215
0.065375,-0.05121353641
0.06539583333,-0.05122711882
0.06541666667,-0.05122951418
0.0654375,-0.05124649405
0.06545833333,-0.05125177652
0.06547916667,-0.05121422932
0.0655,-0.05117980763
0.06552083333,-0.05113124102
0.06554166667,-0.05109371245
0.0655625,-0.05103477463
0.06558333333,-0.05100172758
0.06560416667,-0.05090847239
0.065625,-0.05079653114
0.06564583333,-0.05069749057
0.06566666667,-0.05054619536
0.0656875,-0.0503875725
0.06570833333,-0.05017699301
0.06572916667,-0.04995642602
0.06575,-0.0497366935
0.06577083333,-0.04950135574
0.06579166667,-0.04922671989
0.0658125,-0.04889900982
0.06583333333,-0.04857765138
0.06585416667,-0.04825666547
0.065875,-0.04799870029
0.06589583333,-0.0477130264
0.06591666667,-0.04745190591
0.0659375,-0.0472637862
0.06595833333,-0.04706336558
0.06597916667,-0.04684507847
0.066,-0.04666343704
0.06602083333,-0.04647250101
0.06604166667,-0.04632608593
0.0660625,-0.04611464962
0.06608333333,-0.04585850611
0.06610416667,-0.04563711584
0.066125,-0.04543678835
0.06614583333,-0.04526329041
0.06616666667,-0.04511433467
0.0661875,-0.04491916299
0.06620833333,-0.04474090785
0.06622916667,-0.0445407629
0.06625,-0.04435634986
0.06627083333,-0.04420102388
0.06629166667,-0.04401991144
0.0663125,-0.04380046949
0.06633333333,-0.04362727329
0.06635416667,-0.04341115803
0.066375,-0.04323029518
0.06639583333,-0.04294760898
0.06641666667,-0.04248977825
0.0664375,-0.04204018041
0.06645833333,-0.04162430763
0.06647916667,-0.04121419042
0.0665,-0.04081670567
0.06652083333,-0.0404933393
0.06654166667,-0.04016713426
0.0665625,-0.03988104314
0.06658333333,-0.03959828243
0.06660416667,-0.03929816931
0.066625,-0.03898344189
0.06664583333,-0.03870862722
0.06666666667,-0.03842946887
0.0666875,-0.03812295943
0.06670833333,-0.03782338277
0.06672916667,-0.03749427572
0.06675,-0.03714582324
0.06677083333,-0.03681842983
0.06679166667,-0.03645419329
0.0668125,-0.03603231907
0.06683333333,-0.0355897285
0.06685416667,-0.03506527096
0.066875,-0.03444377333
0.06689583333,-0.03380217031
0.06691666667,-0.03311944753
0.0669375,-0.03228767216
0.06695833333,-0.03144873306
0.06697916667,-0.03051380441
0.067,-0.02957122773
0.06702083333,-0.02863447554
0.06704166667,-0.02773406729
0.0670625,-0.02686408721
0.06708333333,-0.02595521323
0.06710416667,-0.02516676858
0.067125,-0.02427219041
0.06714583333,-0.02333053946
0.06716666667,-0.02235820331
0.0671875,-0.02108775079
0.06720833333,-0.01980613731
0.06722916667,-0.01836837456
0.06725,-0.01699119806
0.06727083333,-0.01558267232
0.06729166667,-0.0142797567
0.0673125,-0.01305463724
0.06733333333,-0.01197500061
0.06735416667,-0.01119311154
0.067375,-0.01053827349
0.06739583333,-0.009994634427
0.06741666667,-0.00958913099
0.0674375,-0.009271562099
0.06745833333,-0.008953943849
0.06747916667,-0.008694440126
0.0675,-0.008386949077
0.06752083333,-0.008096579462
0.06754166667,-0.007861662656
0.0675625,-0.007671741303
0.06758333333,-0.007413993124
0.06760416667,-0.007186781615
0.067625,-0.006985939108
0.06764583333,-0.006808736827
0.06766666667,-0.006643678993
0.0676875,-0.00651227776
0.06770833333,-0.006328441668
0.06772916667,-0.00616658479
0.06775,-0.006038859021
0.06777083333,-0.005869925488
0.06779166667,-0.005636358634
0.0678125,-0.005424538162
0.06783333333,-0.005108099431
0.06785416667,-0.00485796947
0.067875,-0.004596577026
0.06789583333,-0.004303619266
0.06791666667,-0.00406508334
0.0679375,-0.003752744291
0.06795833333,-0.003467786824
0.06797916667,-0.003125322983
0.068,-0.002758484101
0.06802083333,-0.002384138061
0.06804166667,-0.002005600836
0.0680625,-0.00158631918
0.06808333333,-0.001050362829
0.06810416667,-0.0003428671043
0.068125,0.0003176471218
0.06814583333,0.001135295955
0.06816666667,0.00233912468
0.0681875,0.003469006391
0.06820833333,0.004412352107
0.06822916667,0.005515538156
0.06825,0.006756077055
0.06827083333,0.007838863879
0.06829166667,0.008800053038
0.0683125,0.009568268433
0.06833333333,0.01015429571
0.06835416667,0.01068701595
0.068375,0.01119881403
0.06839583333,0.01170218363
0.06841666667,0.01213468146
0.0684375,0.01251306385
0.06845833333,0.01281521097
0.06847916667,0.01311399043
0.0685,0.0133615192
0.06852083333,0.01359369699
0.06854166667,0.0137887653
0.0685625,0.01389222592
0.06858333333,0.01401092298
0.06860416667,0.01410011202
0.068625,0.01420657057
0.06864583333,0.01426569838
0.06866666667,0.01434059441
0.0686875,0.01441169623
0.06870833333,0.014466458
0.06872916667,0.01451956388
0.06875,0.01454508677
0.06877083333,0.01459359005
0.06879166667,0.01471230015
0.0688125,0.01481703669
0.06883333333,0.01491769496
0.06885416667,0.0150097264
0.068875,0.01511277072
0.06889583333,0.01523632649
0.06891666667,0.01536488626
0.0689375,0.01553496253
0.06895833333,0.01573432609
0.06897916667,0.01589027606
0.069,0.01601588354
0.06902083333,0.01616640948
0.06904166667,0.01642266847
0.0690625,0.01727933623
0.06908333333,0.0182578899
0.06910416667,0.0190881677
0.069125,0.01992010884
0.06914583333,0.02068096399
0.06916666667,0.02136890031
0.0691875,0.0219137501
0.06920833333,0.02271149307
0.06922916667,0.02356369793
0.06925,0.02427456714
0.06927083333,0.02482562698
0.06929166667,0.02523146942
0.0693125,0.02560191788
0.06933333333,0.02586580254
0.06935416667,0.02611090802
0.069375,0.02635525167
0.06939583333,0.02654059604
0.06941666667,0.02663127147
0.0694375,0.026667431
0.06945833333,0.02667973191
0.06947916667,0.02674068138
0.0695,0.02681420557
0.06952083333,0.02682682872
0.06954166667,0.02686031163
0.0695625,0.02684480324
0.06958333333,0.02677319385
0.06960416667,0.02675521001
0.069625,0.02668444626
0.06964583333,0.02663553692
0.06966666667,0.02654960379
0.0696875,0.02645740472
0.06970833333,0.02635470591
0.06972916667,0.02627782524
0.06975,0.02627909556
0.06977083333,0.02629252896
0.06979166667,0.02628957666
0.0698125,0.02630311623
0.06983333333,0.02632441372
0.06985416667,0.02640487999
0.069875,0.02646826021
0.06989583333,0.02648059092
0.06991666667,0.02649631537
0.0699375,0.02649278939
0.06995833333,0.02651542984
0.06997916667,0.02650457807
0.07,0.02650543116
0.07002083333,0.02654936723
0.07004166667,0.02660869621
0.0700625,0.02664593793
0.07008333333,0.02671800926
0.07010416667,0.02674830519
0.070125,0.02680732869
0.07014583333,0.02684249543
0.07016666667,0.02693832107
0.0701875,0.0270464085
0.07020833333,0.02715513669
0.07022916667,0.02727452852
0.07025,0.02743326128
0.07027083333,0.02758875117
0.07029166667,0.02775010653
0.0703125,0.02788187005
0.07033333333,0.02800785191
0.07035416667,0.02816084214
0.070375,0.02831463516
0.07039583333,0.02847170271
0.07041666667,0.02867467888
0.0704375,0.02885241993
0.07045833333,0.02897096239
0.07047916667,0.02905339561
0.0705,0.02915705368
0.07052083333,0.02925082669
0.07054166667,0.02935373597
0.0705625,0.02946599945
0.07058333333,0.02952041104
0.07060416667,0.02959401719
0.070625,0.0296405144
0.07064583333,0.02970645204
0.07066666667,0.02976488881
0.0706875,0.0298006814
0.07070833333,0.02978983894
0.07072916667,0.02979433537
0.07075,0.0298020225
0.07077083333,0.02981975861
0.07079166667,0.0298584383
0.0708125,0.02989177778
0.07083333333,0.02989642881
0.07085416667,0.02991990931
0.070875,0.02992579341
0.07089583333,0.02993091196
0.07091666667,0.0299074389
0.0709375,0.02992274798
0.07095833333,0.02995050885
0.07097916667,0.02993450128
0.071,0.02998199686
0.07102083333,0.03005903214
0.07104166667,0.03014542907
0.0710625,0.03021690436
0.07108333333,0.0303064324
0.07110416667,0.0303326603
0.071125,0.03036749177
0.07114583333,0.03040406294
0.07116666667,0.03046913259
0.0711875,0.03054480068
0.07120833333,0.03064287454
0.07122916667,0.03078244068
0.07125,0.03092884645
0.07127083333,0.03108041734
0.07129166667,0.03116660193
0.0713125,0.03123228624
0.07133333333,0.03135661036
0.07135416667,0.03147154301
0.071375,0.03150838986
0.07139583333,0.03160908073
0.07141666667,0.03168170527
0.0714375,0.03178356588
0.07145833333,0.03185422719
0.07147916667,0.03193062916
0.0715,0.03203996271
0.07152083333,0.03213352337
0.07154166667,0.03217898309
0.0715625,0.03220738471
0.07158333333,0.03218541294
0.07160416667,0.03215220198
0.071625,0.03214358538
0.07164583333,0.03214192018
0.07166666667,0.03214743361
0.0716875,0.03209941834
0.07170833333,0.03206837922
0.07172916667,0.03210926801
0.07175,0.03207220137
0.07177083333,0.03207818791
0.07179166667,0.03209357336
0.0718125,0.03214418888
0.07183333333,0.03223755211
0.07185416667,0.0322782509
0.071875,0.03229896352
0.07189583333,0.03238772228
0.07191666667,0.03249262273
0.0719375,0.03255699202
0.07195833333,0.03259056434
0.07197916667,0.03259952366
0.072,0.03266568482
0.07202083333,0.03275627643
0.07204166667,0.03281775117
0.0720625,0.03294063732
0.07208333333,0.03304838017
0.07210416667,0.03319751099
0.072125,0.03338892013
0.07214583333,0.03354238719
0.07216666667,0.03370068595
0.0721875,0.03384175897
0.07220833333,0.03394440562
0.07222916667,0.03405055031
0.07225,0.03417237103
0.07227083333,0.03433844447
0.07229166667,0.03447789699
0.0723125,0.03462088853
0.07233333333,0.03469893709
0.07235416667,0.0347706005
0.072375,0.03492438793
0.07239583333,0.03507661447
0.07241666667,0.03520892188
0.0724375,0.03529893979
0.07245833333,0.0354337804
0.07247916667,0.03552147746
0.0725,0.03555082902
0.07252083333,0.03562393785
0.07254166667,0.03567694128
0.0725625,0.03578422591
0.07258333333,0.03587264195
0.07260416667,0.03591899946
0.072625,0.03598083183
0.07264583333,0.03599064425
0.07266666667,0.03599520773
0.0726875,0.03605384752
0.07270833333,0.03607279435
0.07272916667,0.03612917289
0.07275,0.03611586988
0.07277083333,0.03610876203
0.07279166667,0.03611598909
0.0728125,0.03612662107
0.07283333333,0.03614235669
0.07285416667,0.0361768119
0.072875,0.03619315103
0.07289583333,0.03619419783
0.07291666667,0.03614691272
0.0729375,0.03611879423
0.07295833333,0.0360932909
0.07297916667,0.03606139496
0.073,0.03600588068
0.07302083333,0.03589609638
0.07304166667,0.03580592573
0.0730625,0.03577585146
0.07308333333,0.03579432517
0.07310416667,0.03580749035
0.073125,0.03584496677
0.07314583333,0.03585903719
0.07316666667,0.03589588776
0.0731875,0.03592793271
0.07320833333,0.03597393632
0.07322916667,0.03600586951
0.07325,0.03605135903
0.07327083333,0.03608642146
0.07329166667,0.03612837195
0.0733125,0.0361606814
0.07333333333,0.03622933477
0.07335416667,0.03633640334
0.073375,0.03647959977
0.07339583333,0.03662066162
0.07341666667,0.036768388
0.0734375,0.03689661622
0.07345833333,0.03702825308
0.07347916667,0.03712592274
0.0735,0.03721478581
0.07352083333,0.03727965802
0.07354166667,0.03739256039
0.0735625,0.03743542358
0.07358333333,0.03749853745
0.07360416667,0.03758873791
0.073625,0.03764763847
0.07364583333,0.03777464852
0.07366666667,0.03789125755
0.0736875,0.03800678998
0.07370833333,0.03813115135
0.07372916667,0.03830601647
0.07375,0.03852428123
0.07377083333,0.03868474811
0.07379166667,0.03878426179
0.0738125,0.0388661176
0.07383333333,0.03898103163
0.07385416667,0.03909067437
0.073875,0.03920059651
0.07389583333,0.03927730396
0.07391666667,0.03934441134
0.0739375,0.03941174969
0.07395833333,0.0394356437
0.07397916667,0.03950658441
0.074,0.03961885348
0.07402083333,0.03987408057
0.07404166667,0.04012334719
0.0740625,0.04033744335
0.07408333333,0.04045724124
0.07410416667,0.04055505246
0.074125,0.04065593332
0.07414583333,0.04080814496
0.07416666667,0.04096966982
0.0741875,0.04112005979
0.07420833333,0.04125227779
0.07422916667,0.04144185036
0.07425,0.04162463918
0.07427083333,0.04183666036
0.07429166667,0.04209911078
0.0743125,0.0423720777
0.07433333333,0.04260988906
0.07435416667,0.04284482077
0.074375,0.04306669161
0.07439583333,0.04330350831
0.07441666667,0.04358385503
0.0744375,0.04380902648
0.07445833333,0.04402881861
0.07447916667,0.04427958652
0.0745,0.04452008009
0.07452083333,0.04478570446
0.07454166667,0.04507603124
0.0745625,0.04532492533
0.07458333333,0.04558290914
0.07460416667,0.04583483189
0.074625,0.04609259218
0.07464583333,0.0463488549
0.07466666667,0.04657530412
0.0746875,0.04677888006
0.07470833333,0.04691630974
0.07472916667,0.04702601954
0.07475,0.04717932269
0.07477083333,0.04728858918
0.07479166667,0.04737565294
0.0748125,0.04741408676
0.07483333333,0.04745651782
0.07485416667,0.04746348038
0.074875,0.04747482762
0.07489583333,0.04747832566
0.07491666667,0.04740789533
0.0749375,0.04730172083
0.07495833333,0.04720501602
0.07497916667,0.04711155593
0.075,0.04700609669
0.07502083333,0.04687952623
0.07504166667,0.0467174165
0.0750625,0.04651896283
0.07508333333,0.04633424059
0.07510416667,0.04618493468
0.075125,0.04602443054
0.07514583333,0.04587437958
0.07516666667,0.04571038857
0.0751875,0.04552222043
0.07520833333,0.04535979778
0.07522916667,0.04514339939
0.07525,0.0449443236
0.07527083333,0.04474534467
0.07529166667,0.04452613369
0.0753125,0.0443206057
0.07533333333,0.04413010553
0.07535416667,0.04395752773
0.075375,0.0438320525
0.07539583333,0.0437390171
0.07541666667,0.04360405356
0.0754375,0.04349338263
0.07545833333,0.04344846681
0.07547916667,0.04338043928
0.0755,0.04332416132
0.07552083333,0.04326425493
0.07554166667,0.04316225275
0.0755625,0.04305492342
0.07558333333,0.04289919138
0.07560416667,0.04275754094
0.075625,0.04259887338
0.07564583333,0.04243664816
0.07566666667,0.04225932062
0.0756875,0.04210729152
0.07570833333,0.04191241413
0.07572916667,0.04171701148
0.07575,0.04154594988
0.07577083333,0.04141695425
0.07579166667,0.04123358428
0.0758125,0.04103324562
0.07583333333,0.04077132791
0.07585416667,0.04042783752
0.075875,0.04012169316
0.07589583333,0.03982202336
0.07591666667,0.03958865628
0.0759375,0.03931771591
0.07595833333,0.03907755017
0.07597916667,0.03885119408
0.076,0.03863137588
0.07602083333,0.03841948509
0.07604166667,0.03820488602
0.0760625,0.03797414154
0.07608333333,0.03776115552
0.07610416667,0.03756661713
0.076125,0.03737580776
0.07614583333,0.0372020416
0.07616666667,0.03706369549
0.0761875,0.03696124256
0.07620833333,0.0368264541
0.07622916667,0.03669833392
0.07625,0.03657959402
0.07627083333,0.03648648039
0.07629166667,0.03636594862
0.0763125,0.03619207069
0.07633333333,0.03602263704
0.07635416667,0.03585803509
0.076375,0.03568967432
0.07639583333,0.03550610319
0.07641666667,0.03525843844
0.0764375,0.03506885096
0.07645833333,0.03486641496
0.07647916667,0.03467481211
0.0765,0.03443714231
0.07652083333,0.03419015184
0.07654166667,0.03392599151
0.0765625,0.03367017582
0.07658333333,0.03339517117
0.07660416667,0.03307857364
0.076625,0.03274917975
0.07664583333,0.03237613291
0.07666666667,0.03198859468
0.0766875,0.03158904612
0.07670833333,0.03118976578
0.07672916667,0.03076232225
0.07675,0.0303378012
0.07677083333,0.02995358035
0.07679166667,0.02957339212
0.0768125,0.02914933488
0.07683333333,0.02870496362
0.07685416667,0.02830855176
0.076875,0.02787902951
0.07689583333,0.02745406516
0.07691666667,0.02697846666
0.0769375,0.02658025362
0.07695833333,0.02616186626
0.07697916667,0.02579181269
0.077,0.02544396557
0.07702083333,0.02513005398
0.07704166667,0.02482521348
0.0770625,0.02452355623
0.07708333333,0.02422608063
0.07710416667,0.02394192293
0.077125,0.02367760055
0.07714583333,0.02338553965
0.07716666667,0.02309090644
0.0771875,0.02280430682
0.07720833333,0.02252969891
0.07722916667,0.02225660533
0.07725,0.0220245868
0.07727083333,0.02182137035
0.07729166667,0.02158196457
0.0773125,0.02134616487
0.07733333333,0.02115617879
0.07735416667,0.02095191926
0.077375,0.020730488
0.07739583333,0.02050556988
0.07741666667,0.02033667825
0.0774375,0.02016605809
0.07745833333,0.01993869804
0.07747916667,0.0197153613
0.0775,0.01950617507
0.07752083333,0.0196255818
0.07754166667,0.01992511004
0.0775625,0.0204376895
0.07758333333,0.02094788477
0.07760416667,0.02148846164
0.077625,0.02225531265
0.07764583333,0.02289371192
0.07766666667,0.02339678816
0.0776875,0.02363383397
0.07770833333,0.02363491431
0.07772916667,0.02347620577
0.07775,0.02323343605
0.07777083333,0.02288458683
0.07779166667,0.02242999524
0.0778125,0.02193388902
0.07783333333,0.02133393474
0.07785416667,0.02064741589
0.077875,0.01992913894
0.07789583333,0.01919111982
0.07791666667,0.01848023757
0.0779375,0.01777661033
0.07795833333,0.01701259054
0.07797916667,0.01623065397
0.078,0.01544780005
0.07802083333,0.01469795126
0.07804166667,0.01396725141
0.0780625,0.01326346956
0.07808333333,0.01256716158
0.07810416667,0.01187288575
0.078125,0.01116437651
0.07814583333,0.01048084907
0.07816666667,0.009887262248
0.0781875,0.00930444058
0.07820833333,0.008788750507
0.07822916667,0.008272456937
0.07825,0.007724075578
0.07827083333,0.007200110704
0.07829166667,0.006747196428
0.0783125,0.006316100247
0.07833333333,0.005858302116
0.07835416667,0.005437090993
0.078375,0.005036038812
0.07839583333,0.004683461972
0.07841666667,0.004393253475
0.0784375,0.004199136049
0.07845833333,0.003996585496
0.07847916667,0.003802732332
0.0785,0.003564589424
0.07852083333,0.003348415019
0.07854166667,0.003285060404
0.0785625,0.003316816874
0.07858333333,0.00367753231
0.07860416667,0.003773904406
0.078625,0.003494580043
0.07864583333,0.003309643129
0.07866666667,0.003080666997
0.0786875,0.003202860709
0.07870833333,0.003530939342
0.07872916667,0.003721262794
0.07875,0.00377421896
0.07877083333,0.003681729548
0.07879166667,0.003456108505
0.0788125,0.003187794471
0.07883333333,0.002851226833
0.07885416667,0.002526446013
0.078875,0.002155306516
0.07889583333,0.001731799683
0.07891666667,0.00123422686
0.0789375,0.00074010354
0.07895833333,0.0002513576765
0.07897916667,-0.000307518756
0.079,-0.0009066162165
0.07902083333,-0.001536913682
0.07904166667,-0.002150505781
0.0790625,-0.002763475524
0.07908333333,-0.003384521464
0.07910416667,-0.004027683288
0.079125,-0.004672398791
0.07914583333,-0.005311591085
0.07916666667,-0.006025919691
0.0791875,-0.006720604375
0.07920833333,-0.007337356918
0.07922916667,-0.007982572541
0.07925,-0.008562421426
0.07927083333,-0.009214067832
0.07929166667,-0.009880272672
0.0793125,-0.01051322464
0.07933333333,-0.01116140746
0.07935416667,-0.01177392714
0.079375,-0.01238419116
0.07939583333,-0.01301107556
0.07941666667,-0.01362001337
0.0794375,-0.01425544824
0.07945833333,-0.01490374375
0.07947916667,-0.0154871447
0.0795,-0.01604569331
0.07952083333,-0.01658200659
0.07954166667,-0.01709927619
0.0795625,-0.0176075194
0.07958333333,-0.01811352558
0.07960416667,-0.01860347763
0.079625,-0.01909798943
0.07964583333,-0.01958638616
0.07966666667,-0.02002104186
0.0796875,-0.0205187276
0.07970833333,-0.02096856944
0.07972916667,-0.0214193482
0.07975,-0.02189795859
0.07977083333,-0.02237689309
0.07979166667,-0.02286026068
0.0798125,-0.02332136035
0.07983333333,-0.02378302068
0.07985416667,-0.02422572859
0.079875,-0.02460596152
0.07989583333,-0.02502573654
0.07991666667,-0.02544388734
0.0799375,-0.0258268062
0.07995833333,-0.02621783689
0.07997916667,-0.02658751979
0.08,-0.02696269192
0.08002083333,-0.02732903138
0.08004166667,-0.02769595943
0.0800625,-0.02805595286
0.08008333333,-0.02838109992
0.08010416667,-0.02867305651
0.080125,-0.02894653566
0.08014583333,-0.02924720757
0.08016666667,-0.02955366857
0.0801875,-0.02983016148
0.08020833333,-0.03009187989
0.08022916667,-0.03032100946
0.08025,-0.03051673807
0.08027083333,-0.030743815
0.08029166667,-0.03093496151
0.0803125,-0.03117082827
0.08033333333,-0.03135818988
0.08035416667,-0.03150960431
0.080375,-0.03159753978
0.08039583333,-0.03167379275
0.08041666667,-0.03175747022
0.0804375,-0.03187632561
0.08045833333,-0.03201246634
0.08047916667,-0.03210798278
0.0805,-0.03217666224
0.08052083333,-0.03227192909
0.08054166667,-0.03238474205
0.0805625,-0.0324524492
0.08058333333,-0.03248516098
0.08060416667,-0.03255058825
0.080625,-0.03262368217
0.08064583333,-0.03268234059
0.08066666667,-0.03277340531
0.0806875,-0.03286373243
0.08070833333,-0.03299655765
0.08072916667,-0.03310265392
0.08075,-0.03317336738
0.08077083333,-0.03323846683
0.08079166667,-0.03328486532
0.0808125,-0.03337190673
0.08083333333,-0.03337879106
0.08085416667,-0.03336342797
0.080875,-0.0333747454
0.08089583333,-0.03332036361
0.08091666667,-0.03331650048
0.0809375,-0.03333266824
0.08095833333,-0.0333051011
0.08097916667,-0.03329219669
0.081,-0.03328638524
0.08102083333,-0.03329112753
0.08104166667,-0.03335168958
0.0810625,-0.03339073434
0.08108333333,-0.0333709605
0.08110416667,-0.03339351714
0.081125,-0.0334116891
0.08114583333,-0.03345412016
0.08116666667,-0.03349114209
0.0811875,-0.03356608376
0.08120833333,-0.03367948905
0.08122916667,-0.03377807513
0.08125,-0.03388559446
0.08127083333,-0.03394687921
0.08129166667,-0.03404030204
0.0813125,-0.03414461017
0.08133333333,-0.03427707404
0.08135416667,-0.03441507369
0.081375,-0.03453991935
0.08139583333,-0.03465741873
0.08141666667,-0.03479855135
0.0814375,-0.0349043496
0.08145833333,-0.03502069041
0.08147916667,-0.03511190787
0.0815,-0.03520217538
0.08152083333,-0.03528767824
0.08154166667,-0.03536516055
0.0815625,-0.03546014056
0.08158333333,-0.03552219272
0.08160416667,-0.03559483588
0.081625,-0.03568619117
0.08164583333,-0.03573882952
0.08166666667,-0.03581445664
0.0816875,-0.03586894274
0.08170833333,-0.03595549613
0.08172916667,-0.03600207344
0.08175,-0.03607005253
0.08177083333,-0.03613225371
0.08179166667,-0.03616793081
0.0818125,-0.03621798381
0.08183333333,-0.03624824435
0.08185416667,-0.03630677238
0.081875,-0.03637871519
0.08189583333,-0.03641401231
0.08191666667,-0.03642166406
0.0819375,-0.03642629832
0.08195833333,-0.03644025326
0.08197916667,-0.03642028198
0.082,-0.03641810641
0.08202083333,-0.0364398174
0.08204166667,-0.0364741981
0.0820625,-0.03652001917
0.08208333333,-0.03655884042
0.08210416667,-0.03661312535
0.082125,-0.03670012206
0.08214583333,-0.03677875921
0.08216666667,-0.03688182309
0.0821875,-0.0369692184
0.08220833333,-0.03707296774
0.08222916667,-0.03712607175
0.08225,-0.03714519739
0.08227083333,-0.03719291836
0.08229166667,-0.03726569563
0.0823125,-0.03735435382
0.08233333333,-0.03744810075
0.08235416667,-0.03750545159
0.082375,-0.03757591918
0.08239583333,-0.03765027225
0.08241666667,-0.03775495291
0.0824375,-0.0378463082
0.08245833333,-0.03797084838
0.08247916667,-0.0381035544
0.0825,-0.03822838515
0.08252083333,-0.03835099563
0.08254166667,-0.03844425455
0.0825625,-0.03852652386
0.08258333333,-0.03860136494
0.08260416667,-0.03866410255
0.082625,-0.03868790716
0.08264583333,-0.03875333816
0.08266666667,-0.03879652917
0.0826875,-0.03881653398
0.08270833333,-0.03884072974
0.08272916667,-0.03884599358
0.08275,-0.038841784
0.08277083333,-0.03878492117
0.08279166667,-0.0387451984
0.0828125,-0.03868567944
0.08283333333,-0.03863661364
0.08285416667,-0.03854954243
0.082875,-0.03845646605
0.08289583333,-0.03838047013
0.08291666667,-0.03830179945
0.0829375,-0.03822339326
0.08295833333,-0.03808218241
0.08297916667,-0.03792751208
0.083,-0.03779312596
0.08302083333,-0.03767161071
0.08304166667,-0.03755515069
0.0830625,-0.03747341037
0.08308333333,-0.03739337996
0.08310416667,-0.03728481382
0.083125,-0.03720946237
0.08314583333,-0.03713035211
0.08316666667,-0.03705720603
0.0831875,-0.0370012708
0.08320833333,-0.03693857417
0.08322916667,-0.03688049316
0.08325,-0.0368180275
0.08327083333,-0.03676033765
0.08329166667,-0.03674102575
0.0833125,-0.03672813624
0.08333333333,-0.03671002015
0.08335416667,-0.03670750186
0.083375,-0.03669685498
0.08339583333,-0.03668873757
0.08341666667,-0.03666024283
0.0834375,-0.03666872159
0.08345833333,-0.03670276329
0.08347916667,-0.03670497984
0.0835,-0.03668117523
0.08352083333,-0.03671242297
0.08354166667,-0.03672680259
0.0835625,-0.03673472255
0.08358333333,-0.0367956236
0.08360416667,-0.03681502119
0.083625,-0.03683781996
0.08364583333,-0.03685570881
0.08366666667,-0.03687788919
0.0836875,-0.03685864806
0.08370833333,-0.03687262163
0.08372916667,-0.03686973453
0.08375,-0.03685680032
0.08377083333,-0.03681376576
0.08379166667,-0.03674597293
0.0838125,-0.0366962105
0.08383333333,-0.03667427599
0.08385416667,-0.03665271774
0.083875,-0.03663480654
0.08389583333,-0.03665320948
0.08391666667,-0.03666513413
0.0839375,-0.03669553995
0.08395833333,-0.03670993075
0.08397916667,-0.03675136715
0.084,-0.03682620451
0.08402083333,-0.03687219322
0.08404166667,-0.03698429465
0.0840625,-0.03711770475
0.08408333333,-0.03730729967
0.08410416667,-0.03748233616
0.084125,-0.03766155615
0.08414583333,-0.03781480342
0.08416666667,-0.0378728807
0.0841875,-0.03791110963
0.08420833333,-0.03800613806
0.08422916667,-0.03814999014
0.08425,-0.03835800663
0.08427083333,-0.0386283733
0.08429166667,-0.03891394287
0.0843125,-0.03914257139
0.08433333333,-0.03939194605
0.08435416667,-0.0396710299
0.084375,-0.03997209296
0.08439583333,-0.04028312862
0.08441666667,-0.04064871371
0.0844375,-0.0410380885
0.08445833333,-0.0414388217
0.08447916667,-0.04180518538
0.0845,-0.04215462878
0.08452083333,-0.04252122715
0.08454166667,-0.04287341237
0.0845625,-0.04326498136
0.08458333333,-0.04365056753
0.08460416667,-0.04401368275
0.084625,-0.0443999581
0.08464583333,-0.04478269815
0.08466666667,-0.0451785028
0.0846875,-0.04551787674
0.08470833333,-0.04580403864
0.08472916667,-0.04612554982
0.08475,-0.04648445174
0.08477083333,-0.04687059671
0.08479166667,-0.04722319171
0.0848125,-0.04758078605
0.08483333333,-0.04794146866
0.08485416667,-0.04827491567
0.084875,-0.0486064665
0.08489583333,-0.04888989776
0.08491666667,-0.04914228991
0.0849375,-0.04938037694
0.08495833333,-0.04957071319
0.08497916667,-0.04976489395
0.085,-0.04991129786
0.08502083333,-0.05008307844
0.08504166667,-0.05020229891
0.0850625,-0.05020028725
0.08508333333,-0.05022022873
0.08510416667,-0.05019057915
0.085125,-0.0501447618
0.08514583333,-0.05012015998
0.08516666667,-0.05005633458
0.0851875,-0.05000491068
0.08520833333,-0.04993136972
0.08522916667,-0.04981327802
0.08525,-0.04968533665
0.08527083333,-0.04957265407
0.08529166667,-0.04948685318
0.0853125,-0.0494036451
0.08533333333,-0.04933344573
0.08535416667,-0.04929992184
0.085375,-0.04923445731
0.08539583333,-0.04917630926
0.08541666667,-0.04915298522
0.0854375,-0.0491065681
0.08545833333,-0.04906429723
0.08547916667,-0.04901083931
0.0855,-0.04894254357
0.08552083333,-0.04893053696
0.08554166667,-0.04890818521
0.0855625,-0.04884121567
0.08558333333,-0.04878058657
0.08560416667,-0.0487036854
0.085625,-0.04865778238
0.08564583333,-0.04858838394
0.08566666667,-0.0484925732
0.0856875,-0.04838039353
0.08570833333,-0.04822416604
0.08572916667,-0.04806624725
0.08575,-0.04789603502
0.08577083333,-0.0476991646
0.08579166667,-0.04752221704
0.0858125,-0.04730945826
0.08583333333,-0.04707626998
0.08585416667,-0.04682061449
0.085875,-0.0465317443
0.08589583333,-0.04623610899
0.08591666667,-0.04594969004
0.0859375,-0.0456739068
0.08595833333,-0.04545015469
0.08597916667,-0.04525521398
0.086,-0.04502692074
0.08602083333,-0.04485193267
0.08604166667,-0.04465012252
0.0860625,-0.04451713338
0.08608333333,-0.04438174888
0.08610416667,-0.04426363856
0.086125,-0.04413449392
0.08614583333,-0.04399858788
0.08616666667,-0.04386943579
0.0861875,-0.04373385385
0.08620833333,-0.04357979447
0.08622916667,-0.04343255982
0.08625,-0.04323364422
0.08627083333,-0.04302044958
0.08629166667,-0.04280486703
0.0863125,-0.04259254411
0.08633333333,-0.04235303029
0.08635416667,-0.04211483523
0.086375,-0.04185469449
0.08639583333,-0.04157925397
0.08641666667,-0.04130239785
0.0864375,-0.04097052664
0.08645833333,-0.04063321277
0.08647916667,-0.04025042057
0.0865,-0.03988946602
0.08652083333,-0.03956993669
0.08654166667,-0.03923526779
0.0865625,-0.03890811652
0.08658333333,-0.038503699
0.08660416667,-0.03808584809
0.086625,-0.03770911321
0.08664583333,-0.03726809472
0.08666666667,-0.03682608157
0.0866875,-0.03631958365
0.08670833333,-0.03583752736
0.08672916667,-0.03544588387
0.08675,-0.03490369022
0.08677083333,-0.03418162465
0.08679166667,-0.03349680826
0.0868125,-0.03278996795
0.08683333333,-0.03224483132
0.08685416667,-0.03175529465
0.086875,-0.03126171231
0.08689583333,-0.03076880798
0.08691666667,-0.03025268763
0.0869375,-0.02976548485
0.08695833333,-0.02930777892
0.08697916667,-0.02884400077
0.087,-0.02839787304
0.08702083333,-0.0279259868
0.08704166667,-0.02742650174
0.0870625,-0.02697876468
0.08708333333,-0.02652626112
0.08710416667,-0.02608148009
0.087125,-0.02564887516
0.08714583333,-0.02517906763
0.08716666667,-0.02468566969
0.0871875,-0.0241729375
0.08720833333,-0.02367186174
0.08722916667,-0.02316715382
0.08725,-0.02269980125
0.08727083333,-0.02223550156
0.08729166667,-0.02172136866
0.0873125,-0.02124240808
0.08733333333,-0.02071775682
0.08735416667,-0.0202189032
0.087375,-0.01966947876
0.08739583333,-0.01909667253
0.08741666667,-0.01851948351
0.0874375,-0.0179116074
0.08745833333,-0.01727239415
0.08747916667,-0.0165824648
0.0875,-0.01582951471
0.08752083333,-0.01467647217
0.08754166667,-0.01317814551
0.0875625,-0.01196434349
0.08758333333,-0.01083052251
0.08760416667,-0.009655546397
0.087625,-0.008579308167
0.08764583333,-0.007260094397
0.08766666667,-0.005933949724
0.0876875,-0.004873163067
0.08770833333,-0.003975876607
0.08772916667,-0.003244869411
0.08775,-0.002624512184
0.08777083333,-0.002098002937
0.08779166667,-0.001625474659
0.0878125,-0.001248780754
0.08783333333,-0.0009267369751
0.08785416667,-0.0006784063298
0.087875,-0.0004262749571
0.08789583333,-0.0001933509484
0.08791666667,-1.209555194e-06
0.0879375,0.000207278179
0.08795833333,0.0003575158771
0.08797916667,0.0005234011915
0.088,0.0006803718861
0.08802083333,0.0008592316881
0.08804166667,0.001057807822
0.0880625,0.001235187985
0.08808333333,0.001456239726
0.08810416667,0.001712110592
0.088125,0.001909456914
0.08814583333,0.002114840318
0.08816666667,0.002327669645
0.0881875,0.002504378557
0.08820833333,0.002698511817
0.08822916667,0.002864835784
0.08825,0.003065705532
0.08827083333,0.003235951066
0.08829166667,0.003438025713
0.0883125,0.003652811749
0.08833333333,0.003820550628
0.08835416667,0.004000350833
0.088375,0.004239796661
0.08839583333,0.004468304571
0.08841666667,0.004727290943
0.0884375,0.005015512928
0.08845833333,0.005313463509
0.08847916667,0.005866575055
0.0885,0.006581040099
0.08852083333,0.007330275141
0.08854166667,0.007975549437
0.0885625,0.008485976607
0.08858333333,0.008956320584
0.08860416667,0.009475244209
0.088625,0.01004520897
0.08864583333,0.0105187986
0.08866666667,0.01088761352
0.0886875,0.01119406149
0.08870833333,0.01139326859
0.08872916667,0.01153619587
0.08875,0.01157198101
0.08877083333,0.01152851712
0.08879166667,0.01147579774
0.0888125,0.01136070304
0.08883333333,0.01121488493
0.08885416667,0.01100850943
0.088875,0.01079279277
0.08889583333,0.01062641665
0.08891666667,0.01043173857
0.0889375,0.01025199518
0.08895833333,0.01006959565
0.08897916667,0.009921502322
0.089,0.009866453707
0.08902083333,0.009801873937
0.08904166667,0.009744094685
0.0890625,0.009733148851
0.08908333333,0.009714108892
0.08910416667,0.009750767611
0.089125,0.009812301025
0.08914583333,0.009864642285
0.08916666667,0.009955234826
0.0891875,0.01003949437
0.08920833333,0.01012586616
0.08922916667,0.01020372566
0.08925,0.01028756797
0.08927083333,0.01041346043
0.08929166667,0.01051345002
0.0893125,0.01064042188
0.08933333333,0.01075989474
0.08935416667,0.01084325742
0.089375,0.01097865868
0.08939583333,0.01114012673
0.08941666667,0.01131118648
0.0894375,0.01150216628
0.08945833333,0.01167783421
0.08947916667,0.01195872109
0.0895,0.01223322004
0.08952083333,0.01256394852
0.08954166667,0.01290654391
0.0895625,0.01325329021
0.08958333333,0.01372571569
0.08960416667,0.01421074104
0.089625,0.01465353463
0.08964583333,0.01512879878
0.08966666667,0.01558406651
0.0896875,0.01607692614
0.08970833333,0.0165764112
0.08972916667,0.01702950709
0.08975,0.01749342307
0.08977083333,0.01793488674
0.08979166667,0.01832919009
0.0898125,0.01871323586
0.08983333333,0.01904349774
0.08985416667,0.01937272027
0.089875,0.01966717467
0.08989583333,0.01997080259
0.08991666667,0.02024469711
0.0899375,0.0205056034
0.08995833333,0.02075982653
0.08997916667,0.02099039592
0.09,0.02118278481
0.09002083333,0.02135754377
0.09004166667,0.02151909471
0.0900625,0.02170711197
0.09008333333,0.02190108597
0.09010416667,0.02211729437
0.090125,0.02228081971
0.09014583333,0.02246698737
0.09016666667,0.02262860537
0.0901875,0.0227968879
0.09020833333,0.02298340946
0.09022916667,0.02315722965
0.09025,0.02336893789
0.09027083333,0.02352327108
0.09029166667,0.02365537733
0.0903125,0.02378509566
0.09033333333,0.02388157509
0.09035416667,0.02399699576
0.090375,0.02411521226
0.09039583333,0.02424514294
0.09041666667,0.02431471087
0.0904375,0.02441084012
0.09045833333,0.02456084639
0.09047916667,0.02471233718
0.0905,0.02480728924
0.09052083333,0.02493411116
0.09054166667,0.02508356236
0.0905625,0.02519170381
0.09058333333,0.02529567108
0.09060416667,0.02537728287
0.090625,0.02544205077
0.09064583333,0.02556212433
0.09066666667,0.02567998134
0.0906875,0.02579298243
0.09070833333,0.02587191947
