time,data
0,-1.070674784e-07
2.083333333e-05,-1.012066733e-07
4.166666667e-05,-9.554900515e-08
6.25e-05,-9.013560742e-08
8.333333333e-05,-8.464818535e-08
0.0001041666667,-7.890219678e-08
0.000125,-7.278094927e-08
0.0001458333333,-6.633660377e-08
0.0001666666667,-5.979040907e-08
0.0001875,-5.310972639e-08
0.0002083333333,-4.628685701e-08
0.0002291666667,-3.89639645e-08
0.00025,-3.098786294e-08
0.0002708333333,-2.225396223e-08
0.0002916666667,-1.286769979e-08
0.0003125,-3.100155466e-09
0.0003333333333,7.02425762e-09
0.0003541666667,1.740278677e-08
0.000375,2.830142165e-08
0.0003958333333,3.975791429e-08
0.0004166666667,5.181904328e-08
0.0004375,6.435744382e-08
0.0004583333333,7.709372341e-08
0.0004791666667,9.000864054e-08
0.0005,1.029668653e-07
0.0005208333333,1.162463974e-07
0.0005416666667,1.299054588e-07
0.0005625,1.440993316e-07
0.0005833333333,1.587647205e-07
0.0006041666667,1.736688375e-07
0.000625,1.887106862e-07
0.0006458333333,2.036271951e-07
0.0006666666667,2.185906851e-07
0.0006875,2.335779641e-07
0.0007083333333,2.48763854e-07
0.0007291666667,2.640237255e-07
0.00075,2.79016291e-07
0.0007708333333,2.934746988e-07
0.0007916666667,3.06957503e-07
0.0008125,3.196828686e-07
0.0008333333333,3.317195194e-07
0.0008541666667,3.434977032e-07
0.000875,3.550132703e-07
0.0008958333333,3.659493188e-07
0.0009166666667,3.759992353e-07
0.0009375,3.847010532e-07
0.0009583333333,3.923965437e-07
0.0009791666667,3.993390578e-07
0.001,4.06046297e-07
0.001020833333,4.124632369e-07
0.001041666667,4.179958353e-07
0.0010625,4.220765959e-07
0.001083333333,4.240849591e-07
0.001104166667,4.24384865e-07
0.001125,4.23341362e-07
0.001145833333,4.215536364e-07
0.001166666667,4.188809726e-07
0.0011875,4.147133836e-07
0.001208333333,4.0843085e-07
0.001229166667,3.99688787e-07
0.00125,3.891396716e-07
0.001270833333,3.774600827e-07
0.001291666667,3.654221246e-07
0.0013125,3.528302557e-07
0.001333333333,3.390296968e-07
0.001354166667,3.233675727e-07
0.001375,3.054848037e-07
0.001395833333,2.861104917e-07
0.001416666667,2.657224911e-07
0.0014375,2.449648946e-07
0.001458333333,2.233632301e-07
0.001479166667,2.001927442e-07
0.0015,1.74838334e-07
0.001520833333,1.470857995e-07
0.001541666667,1.177806226e-07
0.0015625,8.754309277e-08
0.001583333333,5.709069129e-08
0.001604166667,2.623813877e-08
0.001625,-5.474583009e-09
0.001645833333,-3.833609696e-08
0.001666666667,-7.242716293e-08
0.0016875,-1.069401634e-07
0.001708333333,-1.41423385e-07
0.001729166667,-1.752325289e-07
0.00175,-2.086814987e-07
0.001770833333,-2.42156375e-07
0.001791666667,-2.762084819e-07
0.0018125,-3.111183844e-07
0.001833333333,-3.464551241e-07
0.001854166667,-3.818927041e-07
0.001875,-4.166621181e-07
0.001895833333,-4.507383551e-07
0.001916666667,-4.84221971e-07
0.0019375,-5.174262583e-07
0.001958333333,-5.507230298e-07
0.001979166667,-5.8350264e-07
0.002,-6.153139225e-07
0.002020833333,-6.449230909e-07
0.002041666667,-6.720546253e-07
0.0020625,-6.968168123e-07
0.002083333333,-7.199258789e-07
0.002104166667,-7.42254997e-07
0.002125,-7.636706414e-07
0.002145833333,-7.836998179e-07
0.002166666667,-8.012137869e-07
0.0021875,-8.157824141e-07
0.002208333333,-8.279159829e-07
0.002229166667,-8.385917454e-07
0.00225,-8.489159313e-07
0.002270833333,-8.585467413e-07
0.002291666667,-8.664581514e-07
0.0023125,-8.70915926e-07
0.002333333333,-8.712449926e-07
0.002354166667,-8.678497352e-07
0.002375,-8.620926337e-07
0.002395833333,-8.549889117e-07
0.002416666667,-8.463031804e-07
0.0024375,-8.347792573e-07
0.002458333333,-8.18897945e-07
0.002479166667,-7.984065178e-07
0.0025,-7.744262689e-07
0.002520833333,-7.488013125e-07
0.002541666667,-7.229281209e-07
0.0025625,-6.963773558e-07
0.002583333333,-6.679633202e-07
0.002604166667,-6.359659892e-07
0.002625,-6.002773603e-07
0.002645833333,-5.618315413e-07
0.002666666667,-5.221990591e-07
0.0026875,-4.822165351e-07
0.002708333333,-4.411459429e-07
0.002729166667,-3.97519301e-07
0.00275,-3.499777677e-07
0.002770833333,-2.984469916e-07
0.002791666667,-2.442856157e-07
0.0028125,-1.889848562e-07
0.002833333333,-1.33783459e-07
0.002854166667,-7.829618198e-08
0.002875,-2.185123193e-08
0.002895833333,3.642300683e-08
0.002916666667,9.625332353e-08
0.0029375,1.566114207e-07
0.002958333333,2.162296084e-07
0.002979166667,2.743327059e-07
0.003,3.311764658e-07
0.003020833333,3.876754988e-07
0.003041666667,4.447751962e-07
0.0030625,5.030032071e-07
0.003083333333,5.618059049e-07
0.003104166667,6.204424494e-07
0.003125,6.776980968e-07
0.003145833333,7.333928806e-07
0.003166666667,7.875660799e-07
0.0031875,8.410702321e-07
0.003208333333,8.942030831e-07
0.003229166667,9.465317703e-07
0.00325,9.967850474e-07
0.003270833333,1.043201337e-06
0.003291666667,1.084956125e-06
0.0033125,1.122310096e-06
0.003333333333,1.156593953e-06
0.003354166667,1.189404543e-06
0.003375,1.220678428e-06
0.003395833333,1.249751335e-06
0.003416666667,1.274427859e-06
0.0034375,1.294224148e-06
0.003458333333,1.309629738e-06
0.003479166667,1.322750904e-06
0.0035,1.335338311e-06
0.003520833333,1.347110583e-06
0.003541666667,1.356208145e-06
0.0035625,1.359725502e-06
0.003583333333,1.356305575e-06
0.003604166667,1.346841827e-06
0.003625,1.333455884e-06
0.003645833333,1.318321893e-06
0.003666666667,1.30078547e-06
0.0036875,1.279080152e-06
0.003708333333,1.250310106e-06
0.003729166667,1.214316399e-06
0.00375,1.172764314e-06
0.003770833333,1.129106181e-06
0.003791666667,1.085508188e-06
0.0038125,1.04153105e-06
0.003833333333,9.949623063e-07
0.003854166667,9.430483487e-07
0.003875,8.855130318e-07
0.003895833333,8.240411375e-07
0.003916666667,7.612027844e-07
0.0039375,6.986309131e-07
0.003958333333,6.34719413e-07
0.003979166667,5.675088914e-07
0.004,4.940614531e-07
0.004020833333,4.15016558e-07
0.004041666667,3.319927373e-07
0.0040625,2.481165779e-07
0.004083333333,1.650248009e-07
0.004104166667,8.22490378e-08
0.004125,-1.424298679e-09
0.004145833333,-8.756887127e-08
0.004166666667,-1.755429224e-07
0.0041875,-2.637241323e-07
0.004208333333,-3.499678485e-07
0.004229166667,-4.328562966e-07
0.00425,-5.133358059e-07
0.004270833333,-5.923351978e-07
0.004291666667,-6.723761317e-07
0.0043125,-7.532177619e-07
0.004333333333,-8.349629752e-07
0.004354166667,-9.153486644e-07
0.004375,-9.931779914e-07
0.004395833333,-1.067884909e-06
0.004416666667,-1.139724077e-06
0.0044375,-1.210478104e-06
0.004458333333,-1.280070023e-06
0.004479166667,-1.348280534e-06
0.0045,-1.412546567e-06
0.004520833333,-1.470172947e-06
0.004541666667,-1.520371484e-06
0.0045625,-1.562882744e-06
0.004583333333,-1.601311396e-06
0.004604166667,-1.63655784e-06
0.004625,-1.670134338e-06
0.004645833333,-1.699348786e-06
0.004666666667,-1.721883223e-06
0.0046875,-1.736547688e-06
0.004708333333,-1.744312272e-06
0.004729166667,-1.749175226e-06
0.00475,-1.753013294e-06
0.004770833333,-1.7562229e-06
0.004791666667,-1.755040898e-06
0.0048125,-1.745221766e-06
0.004833333333,-1.725139441e-06
0.004854166667,-1.695399192e-06
0.004875,-1.66104644e-06
0.004895833333,-1.623488629e-06
0.004916666667,-1.58373814e-06
0.0049375,-1.537013873e-06
0.004958333333,-1.480383048e-06
0.004979166667,-1.412829874e-06
0.005,-1.337308163e-06
0.005020833333,-1.259724172e-06
0.005041666667,-1.182464871e-06
0.0050625,-1.105982733e-06
0.005083333333,-1.025721076e-06
0.005104166667,-9.381720361e-07
0.005125,-8.429541936e-07
0.005145833333,-7.419899362e-07
0.005166666667,-6.408008062e-07
0.0051875,-5.397016594e-07
0.005208333333,-4.387672163e-07
0.005229166667,-3.3247386e-07
0.00525,-2.186178847e-07
0.005270833333,-9.664589129e-08
0.005291666667,3.021490258e-08
0.0053125,1.571245463e-07
0.005333333333,2.824961882e-07
0.005354166667,4.056311127e-07
0.005375,5.298476822e-07
0.005395833333,6.561418786e-07
0.005416666667,7.842821788e-07
0.0054375,9.120545315e-07
0.005458333333,1.035157425e-06
0.005479166667,1.153677545e-06
0.0055,1.266021627e-06
0.005520833333,1.376833211e-06
0.005541666667,1.486536803e-06
0.0055625,1.59752642e-06
0.005583333333,1.708397804e-06
0.005604166667,1.816428721e-06
0.005625,1.920633622e-06
0.005645833333,2.018349733e-06
0.005666666667,2.112064294e-06
0.0056875,2.202083579e-06
0.005708333333,2.289990789e-06
0.005729166667,2.375166787e-06
0.00575,2.453188017e-06
0.005770833333,2.522471505e-06
0.005791666667,2.578328122e-06
0.0058125,2.624327635e-06
0.005833333333,2.661487315e-06
0.005854166667,2.694802106e-06
0.005875,2.724275191e-06
0.005895833333,2.747247208e-06
0.005916666667,2.760950338e-06
0.0059375,2.76179253e-06
0.005958333333,2.753600256e-06
0.005979166667,2.739308002e-06
0.006,2.724014394e-06
0.006020833333,2.707351086e-06
0.006041666667,2.683809726e-06
0.0060625,2.649348744e-06
0.006083333333,2.598052333e-06
0.006104166667,2.535190788e-06
0.006125,2.46299669e-06
0.006145833333,2.388173925e-06
0.006166666667,2.308917828e-06
0.0061875,2.220536544e-06
0.006208333333,2.118826615e-06
0.006229166667,2.000778522e-06
0.00625,1.873203701e-06
0.006270833333,1.741282631e-06
0.006291666667,1.611408948e-06
0.0063125,1.482490802e-06
0.006333333333,1.348607839e-06
0.006354166667,1.206257821e-06
0.006375,1.051769459e-06
0.006395833333,8.922914958e-07
0.006416666667,7.303733014e-07
0.0064375,5.718300713e-07
0.006458333333,4.122643702e-07
0.006479166667,2.472295648e-07
0.0065,7.219388465e-08
0.006520833333,-1.140892891e-07
0.006541666667,-3.048439225e-07
0.0065625,-4.966309461e-07
0.006583333333,-6.83311896e-07
0.006604166667,-8.671576097e-07
0.006625,-1.05088759e-06
0.006645833333,-1.235805371e-06
0.006666666667,-1.423984372e-06
0.0066875,-1.60779166e-06
0.006708333333,-1.787107522e-06
0.006729166667,-1.955420657e-06
0.00675,-2.116666565e-06
0.006770833333,-2.27261944e-06
0.006791666667,-2.426716719e-06
0.0068125,-2.5819038e-06
0.006833333333,-2.734310783e-06
0.006854166667,-2.883512025e-06
0.006875,-3.023662202e-06
0.006895833333,-3.155340664e-06
0.006916666667,-3.279089015e-06
0.0069375,-3.396634156e-06
0.006958333333,-3.511584964e-06
0.006979166667,-3.619067229e-06
0.007,-3.718759899e-06
0.007020833333,-3.800999139e-06
0.007041666667,-3.866918632e-06
0.0070625,-3.915148227e-06
0.007083333333,-3.951939107e-06
0.007104166667,-3.98245902e-06
0.007125,-4.005592018e-06
0.007145833333,-4.020907909e-06
0.007166666667,-4.01932175e-06
0.0071875,-4.001445177e-06
0.007208333333,-3.968272267e-06
0.007229166667,-3.92666243e-06
0.00725,-3.884148555e-06
0.007270833333,-3.836638825e-06
0.007291666667,-3.782515705e-06
0.0073125,-3.707960559e-06
0.007333333333,-3.613654599e-06
0.007354166667,-3.499180366e-06
0.007375,-3.373951358e-06
0.007395833333,-3.244252184e-06
0.007416666667,-3.10739938e-06
0.0074375,-2.959786343e-06
0.007458333333,-2.790315193e-06
0.007479166667,-2.600922016e-06
0.0075,-2.395781848e-06
0.007520833333,-2.185875928e-06
0.007541666667,-1.979394938e-06
0.0075625,-1.772314931e-06
0.007583333333,-1.561909357e-06
0.007604166667,-1.335338766e-06
0.007625,-1.096684969e-06
0.007645833333,-8.469538102e-07
0.007666666667,-5.973769817e-07
0.0076875,-3.511036368e-07
0.007708333333,-1.040273787e-07
0.007729166667,1.486015151e-07
0.00775,4.171828323e-07
0.007770833333,6.975054134e-07
0.007791666667,9.866340633e-07
0.0078125,1.274351575e-06
0.007833333333,1.555217295e-06
0.007854166667,1.832542011e-06
0.007875,2.106047305e-06
0.007895833333,2.384992058e-06
0.007916666667,2.662389306e-06
0.0079375,2.938659463e-06
0.007958333333,3.203648248e-06
0.007979166667,3.455922752e-06
0.008,3.696843578e-06
0.008020833333,3.928564638e-06
0.008041666667,4.159574473e-06
0.0080625,4.387411536e-06
0.008083333333,4.614418685e-06
0.008104166667,4.833257663e-06
0.008125,5.04054151e-06
0.008145833333,5.23591325e-06
0.008166666667,5.417025932e-06
0.0081875,5.59286309e-06
0.008208333333,5.758542102e-06
0.008229166667,5.919009709e-06
0.00825,6.062766715e-06
0.008270833333,6.18648528e-06
0.008291666667,6.285423297e-06
0.0083125,6.359662166e-06
0.008333333333,6.419560123e-06
0.008354166667,6.466071227e-06
0.008375,6.505931196e-06
0.008395833333,6.530360224e-06
0.008416666667,6.534293334e-06
0.0084375,6.515123005e-06
0.008458333333,6.472880159e-06
0.008479166667,6.42220175e-06
0.0085,6.363076864e-06
0.008520833333,6.302675502e-06
0.008541666667,6.226140613e-06
0.0085625,6.127066627e-06
0.008583333333,5.998143479e-06
0.008604166667,5.842443898e-06
0.008625,5.673050964e-06
0.008645833333,5.492885066e-06
0.008666666667,5.306664207e-06
0.0086875,5.100860562e-06
0.008708333333,4.869326403e-06
0.008729166667,4.609558346e-06
0.00875,4.327665465e-06
0.008770833333,4.041818556e-06
0.008791666667,3.753802503e-06
0.0088125,3.47061291e-06
0.008833333333,3.17509398e-06
0.008854166667,2.864200042e-06
0.008875,2.532606004e-06
0.008895833333,2.1881267e-06
0.008916666667,1.84374619e-06
0.0089375,1.499767222e-06
0.008958333333,1.158502641e-06
0.008979166667,8.041199635e-07
0.009,4.331243986e-07
0.009020833333,4.380624219e-08
0.009041666667,-3.568891884e-07
0.0090625,-7.53602194e-07
0.009083333333,-1.146984118e-06
0.009104166667,-1.529473366e-06
0.009125,-1.915128223e-06
0.009145833333,-2.301055247e-06
0.009166666667,-2.690766223e-06
0.0091875,-3.075885616e-06
0.009208333333,-3.447037443e-06
0.009229166667,-3.803988193e-06
0.00925,-4.142538728e-06
0.009270833333,-4.474659818e-06
0.009291666667,-4.801141586e-06
0.0093125,-5.127453733e-06
0.009333333333,-5.450800472e-06
0.009354166667,-5.762323326e-06
0.009375,-6.0623629e-06
0.009395833333,-6.340763775e-06
0.009416666667,-6.608630883e-06
0.0094375,-6.861766906e-06
0.009458333333,-7.10917584e-06
0.009479166667,-7.344392543e-06
0.0095,-7.559978712e-06
0.009520833333,-7.749959877e-06
0.009541666667,-7.904162885e-06
0.0095625,-8.032108781e-06
0.009583333333,-8.135667485e-06
0.009604166667,-8.22747279e-06
0.009625,-8.307139979e-06
0.009645833333,-8.366621842e-06
0.009666666667,-8.401918421e-06
0.0096875,-8.400955267e-06
0.009708333333,-8.378146049e-06
0.009729166667,-8.335501661e-06
0.00975,-8.290215192e-06
0.009770833333,-8.236225767e-06
0.009791666667,-8.164384781e-06
0.0098125,-8.062173038e-06
0.009833333333,-7.918341907e-06
0.009854166667,-7.744842151e-06
0.009875,-7.547444056e-06
0.009895833333,-7.342212029e-06
0.009916666667,-7.124175681e-06
0.0099375,-6.882166872e-06
0.009958333333,-6.607656815e-06
0.009979166667,-6.291340469e-06
0.01,-5.668234735e-06
0.01002083333,-4.381505278e-06
0.01004166667,-3.697794909e-06
0.0100625,-3.565574389e-06
0.01008333333,-3.64873631e-06
0.01010416667,-3.459272193e-06
0.010125,-3.213347327e-06
0.01014583333,-2.656214519e-06
0.01016666667,-2.41143016e-06
0.0101875,-2.284142056e-06
0.01020833333,-2.244126108e-06
0.01022916667,-1.866811544e-06
0.01025,-1.383558697e-06
0.01027083333,-6.420929708e-07
0.01029166667,2.672746291e-08
0.0103125,6.500094969e-07
0.01033333333,1.129293651e-06
0.01035416667,1.706436706e-06
0.010375,2.181702257e-06
0.01039583333,2.77301524e-06
0.01041666667,2.909442173e-06
0.0104375,2.785350262e-06
0.01045833333,2.536233751e-06
0.01047916667,2.747139206e-06
0.0105,3.279113116e-06
0.01052083333,4.271367743e-06
0.01054166667,5.099215286e-06
0.0105625,5.761425655e-06
0.01058333333,6.261204817e-06
0.01060416667,6.846291853e-06
0.010625,7.492468285e-06
0.01064583333,8.583274393e-06
0.01066666667,9.460999536e-06
0.0106875,1.011761287e-05
0.01070833333,1.003186844e-05
0.01072916667,1.00242396e-05
0.01075,1.003989018e-05
0.01077083333,1.053033611e-05
0.01079166667,1.088541285e-05
0.0108125,1.112274913e-05
0.01083333333,1.106634681e-05
0.01085416667,1.10963183e-05
0.010875,1.113859253e-05
0.01089583333,1.157651059e-05
0.01091666667,1.167335722e-05
0.0109375,1.191446245e-05
0.01095833333,1.166022685e-05
0.01097916667,1.176942988e-05
0.011,1.158198666e-05
0.01102083333,1.175344096e-05
0.01104166667,1.197402889e-05
0.0110625,1.18664093e-05
0.01108333333,1.12857706e-05
0.01110416667,1.089104626e-05
0.011125,1.026514565e-05
0.01114583333,1.008913478e-05
0.01116666667,9.892707567e-06
0.0111875,1.008724121e-05
0.01120833333,9.640703865e-06
0.01122916667,9.290562048e-06
0.01125,8.702179912e-06
0.01127083333,8.271807019e-06
0.01129166667,7.672364518e-06
0.0113125,7.48158709e-06
0.01133333333,6.829402992e-06
0.01135416667,6.455024504e-06
0.011375,5.683558356e-06
0.01139583333,5.398162102e-06
0.01141666667,5.067151506e-06
0.0114375,5.059141131e-06
0.01145833333,4.854714916e-06
0.01147916667,5.326451173e-06
0.0115,5.376913577e-06
0.01152083333,5.766314644e-06
0.01154166667,5.712199709e-06
0.0115625,5.466882612e-06
0.01158333333,4.779148639e-06
0.01160416667,4.114041076e-06
0.011625,3.286742185e-06
0.01164583333,2.680349326e-06
0.01166666667,1.652230367e-06
0.0116875,7.007404292e-07
0.01170833333,-9.488055639e-07
0.01172916667,-1.940620223e-06
0.01175,-2.89899549e-06
0.01177083333,-3.333157338e-06
0.01179166667,-3.905393896e-06
0.0118125,-4.464336143e-06
0.01183333333,-5.597229574e-06
0.01185416667,-6.34584103e-06
0.011875,-7.276080396e-06
0.01189583333,-7.960701623e-06
0.01191666667,-8.458442608e-06
0.0119375,-8.558289665e-06
0.01195833333,-8.955997146e-06
0.01197916667,-8.622360838e-06
0.012,-9.00582836e-06
0.01202083333,-8.595397958e-06
0.01204166667,-8.97040627e-06
0.0120625,-8.854236512e-06
0.01208333333,-9.43413761e-06
0.01210416667,-9.434387721e-06
0.012125,-9.312879229e-06
0.01214583333,-9.254699762e-06
0.01216666667,-9.875651813e-06
0.0121875,-9.855272765e-06
0.01220833333,-1.026207065e-05
0.01222916667,-9.793001482e-06
0.01225,-9.606553249e-06
0.01227083333,-8.66674327e-06
0.01229166667,-7.857866876e-06
0.0123125,-6.930881227e-06
0.01233333333,-7.153896149e-06
0.01235416667,-6.466530976e-06
0.012375,-6.264127478e-06
0.01239583333,-5.88966941e-06
0.01241666667,-5.930926363e-06
0.0124375,-5.276492175e-06
0.01245833333,-5.494239304e-06
0.01247916667,-5.551884897e-06
0.0125,-5.836116543e-06
0.01252083333,-5.925282494e-06
0.01254166667,-6.363979992e-06
0.0125625,-6.29081751e-06
0.01258333333,-6.824898719e-06
0.01260416667,-6.658768598e-06
0.012625,-6.897372259e-06
0.01264583333,-6.940228559e-06
0.01266666667,-7.829443348e-06
0.0126875,-7.784144145e-06
0.01270833333,-8.093583347e-06
0.01272916667,-7.486651612e-06
0.01275,-6.714477422e-06
0.01277083333,-4.618590083e-06
0.01279166667,-3.694781299e-06
0.0128125,-2.222815738e-06
0.01283333333,-1.458630322e-06
0.01285416667,-5.774156762e-07
0.012875,3.676241818e-07
0.01289583333,1.848043325e-06
0.01291666667,2.185370477e-06
0.0129375,3.045016911e-06
0.01295833333,3.475699259e-06
0.01297916667,4.276470918e-06
0.013,4.635498954e-06
0.01302083333,6.448529348e-06
0.01304166667,7.609562999e-06
0.0130625,9.418120499e-06
0.01308333333,9.784978829e-06
0.01310416667,1.026151676e-05
0.013125,1.06770367e-05
0.01314583333,1.110942958e-05
0.01316666667,1.05809313e-05
0.0131875,1.031254942e-05
0.01320833333,9.156709893e-06
0.01322916667,8.620693734e-06
0.01325,8.441261343e-06
0.01327083333,8.308913493e-06
0.01329166667,8.332346624e-06
0.0133125,1.008721119e-05
0.01333333333,1.064537537e-05
0.01335416667,1.106105265e-05
0.013375,1.064164917e-05
0.01339583333,1.112845075e-05
0.01341666667,1.026960854e-05
0.0134375,9.706152923e-06
0.01345833333,8.140723367e-06
0.01347916667,7.810366697e-06
0.0135,6.898290394e-06
0.01352083333,7.274757536e-06
0.01354166667,7.32554463e-06
0.0135625,8.18315948e-06
0.01358333333,8.187736967e-06
0.01360416667,9.087872968e-06
0.013625,9.285386113e-06
0.01364583333,1.006195816e-05
0.01366666667,1.008987238e-05
0.0136875,1.083614552e-05
0.01370833333,1.038363735e-05
0.01372916667,1.101250018e-05
0.01375,1.005361901e-05
0.01377083333,9.019334357e-06
0.01379166667,7.36535776e-06
0.0138125,7.258684036e-06
0.01383333333,7.849244867e-06
0.01385416667,9.08336915e-06
0.013875,9.243402019e-06
0.01389583333,1.013311703e-05
0.01391666667,9.884326573e-06
0.0139375,8.504212929e-06
0.01395833333,6.525726803e-06
0.01397916667,4.756376711e-06
0.014,2.325729838e-06
0.01402083333,2.219514045e-06
0.01404166667,7.816801144e-07
0.0140625,3.951295184e-07
0.01408333333,-1.493253194e-06
0.01410416667,-2.430344466e-06
0.014125,-4.196044301e-06
0.01414583333,-5.06420065e-06
0.01416666667,-6.053583093e-06
0.0141875,-7.293701856e-06
0.01420833333,-7.631766493e-06
0.01422916667,-7.305245163e-06
0.01425,-7.316377378e-06
0.01427083333,-6.215708709e-06
0.01429166667,-6.498522907e-06
0.0143125,-7.16910381e-06
0.01433333333,-8.553873158e-06
0.01435416667,-7.782449757e-06
0.014375,-7.063595604e-06
0.01439583333,-6.416303222e-06
0.01441666667,-7.989888218e-06
0.0144375,-9.188487638e-06
0.01445833333,-1.207054265e-05
0.01447916667,-1.444817644e-05
0.0145,-1.68651386e-05
0.01452083333,-1.578648516e-05
0.01454166667,-1.406398405e-05
0.0145625,-1.027308736e-05
0.01458333333,-7.023776107e-06
0.01460416667,-5.07097684e-06
0.014625,-6.031982593e-06
0.01464583333,-6.129798294e-06
0.01466666667,-8.206213352e-06
0.0146875,-9.097630027e-06
0.01470833333,-1.056835754e-05
0.01472916667,-1.159681869e-05
0.01475,-1.380102276e-05
0.01477083333,-1.419896307e-05
0.01479166667,-1.418020474e-05
0.0148125,-1.487834925e-05
0.01483333333,-1.481127947e-05
0.01485416667,-1.179387255e-05
0.014875,-8.180884834e-06
0.01489583333,-5.15251304e-06
0.01491666667,-2.945922915e-06
0.0149375,-2.090527232e-06
0.01495833333,-6.274607586e-06
0.01497916667,-1.208366302e-05
0.015,-2.160603071e-05
0.01502083333,-2.795612636e-05
0.01504166667,-3.152532008e-05
0.0150625,-2.933625001e-05
0.01508333333,-2.346841939e-05
0.01510416667,-1.504724059e-05
0.015125,-9.927671272e-06
0.01514583333,-7.377822385e-06
0.01516666667,-7.007170552e-06
0.0151875,-5.72938643e-06
0.01520833333,-3.635044777e-06
0.01522916667,3.592913345e-08
0.01525,-2.185789754e-07
0.01527083333,9.132840262e-08
0.01529166667,-2.570975312e-06
0.0153125,-5.053198493e-06
0.01533333333,-6.350292551e-06
0.01535416667,-4.511086445e-06
0.015375,-4.240414455e-06
0.01539583333,4.583123427e-07
0.01541666667,4.088953119e-06
0.0154375,8.224614248e-06
0.01545833333,1.224341031e-05
0.01547916667,1.528052962e-05
0.0155,1.567834443e-05
0.01552083333,1.189226532e-05
0.01554166667,7.827107765e-06
0.0155625,2.191862222e-06
0.01558333333,-1.357608198e-06
0.01560416667,7.704520613e-07
0.015625,1.492390766e-06
0.01564583333,4.190257641e-06
0.01566666667,2.816154847e-06
0.0156875,1.017734576e-06
0.01570833333,6.321852197e-07
0.01572916667,2.19202866e-06
0.01575,4.495441317e-06
0.01577083333,5.297041298e-06
0.01579166667,2.825522643e-06
0.0158125,5.934916771e-07
0.01583333333,-7.664766599e-07
0.01585416667,-8.336246538e-08
0.015875,2.677780685e-06
0.01589583333,5.993098512e-06
0.01591666667,6.54850146e-06
0.0159375,7.3697679e-06
0.01595833333,5.207029062e-06
0.01597916667,7.089355222e-06
0.016,7.485422429e-06
0.01602083333,8.783777957e-06
0.01604166667,9.017338016e-06
0.0160625,1.117502507e-05
0.01608333333,1.10641231e-05
0.01610416667,1.165057529e-05
0.016125,1.287018677e-05
0.01614583333,1.486497604e-05
0.01616666667,1.598663221e-05
0.0161875,1.468017399e-05
0.01620833333,1.220105332e-05
0.01622916667,1.252233778e-05
0.01625,1.179665924e-05
0.01627083333,1.231145598e-05
0.01629166667,9.167468306e-06
0.0163125,6.144292456e-06
0.01633333333,1.735924116e-06
0.01635416667,1.180929758e-06
0.016375,2.075022394e-06
0.01639583333,3.755607395e-06
0.01641666667,4.803950105e-06
0.0164375,5.337453786e-06
0.01645833333,2.234665772e-06
0.01647916667,-5.182051609e-06
0.0165,-1.041629548e-05
0.01652083333,-1.179752053e-05
0.01654166667,-1.358279678e-05
0.0165625,-1.362556031e-05
0.01658333333,-1.672790495e-05
0.01660416667,-1.497206904e-05
0.016625,-1.518018325e-05
0.01664583333,-9.959818271e-06
0.01666666667,-6.346305327e-06
0.0166875,-2.586247774e-06
0.01670833333,-5.63136382e-08
0.01672916667,-5.550946298e-07
0.01675,1.416447049e-06
0.01677083333,4.712348527e-06
0.01679166667,1.626130143e-06
0.0168125,1.749940566e-07
0.01683333333,-1.595387403e-06
0.01685416667,-2.679835234e-06
0.016875,-6.813761502e-07
0.01689583333,5.569430868e-06
0.01691666667,8.058052117e-06
0.0169375,1.055310622e-05
0.01695833333,6.173290785e-06
0.01697916667,-6.10427378e-07
0.017,-9.063903235e-06
0.01702083333,-1.313260782e-05
0.01704166667,-1.467744733e-05
0.0170625,-1.644080476e-05
0.01708333333,-1.706899093e-05
0.01710416667,-1.952737694e-05
0.017125,-2.099098492e-05
0.01714583333,-1.833302122e-05
0.01716666667,-1.618717761e-05
0.0171875,-1.134934791e-05
0.01720833333,-9.537430742e-06
0.01722916667,-7.76226625e-06
0.01725,-9.733093975e-06
0.01727083333,-1.020951277e-05
0.01729166667,-1.178189996e-05
0.0173125,-1.589289059e-05
0.01733333333,-1.920253999e-05
0.01735416667,-1.955916741e-05
0.017375,-1.674583473e-05
0.01739583333,-1.057933241e-05
0.01741666667,-2.303968358e-07
0.0174375,1.148299361e-05
0.01745833333,1.701273868e-05
0.01747916667,1.999031883e-05
0.0175,1.84360124e-05
0.01752083333,1.060074283e-05
0.01754166667,5.124399195e-06
0.0175625,5.26352369e-06
0.01758333333,4.267393706e-06
0.01760416667,3.359150924e-06
0.017625,5.195275207e-06
0.01764583333,3.534058578e-06
0.01766666667,4.124632596e-06
0.0176875,8.866748431e-06
0.01770833333,1.474841156e-05
0.01772916667,2.058040081e-05
0.01775,2.425138155e-05
0.01777083333,2.633202166e-05
0.01779166667,1.978442378e-05
0.0178125,1.596459697e-05
0.01783333333,1.14255663e-05
0.01785416667,1.143180452e-05
0.017875,6.403058251e-06
0.01789583333,6.473647318e-06
0.01791666667,4.059939329e-06
0.0179375,6.695995125e-06
0.01795833333,1.011809672e-05
0.01797916667,1.656805944e-05
0.018,2.159674841e-05
0.01802083333,2.138065793e-05
0.01804166667,1.75717978e-05
0.0180625,1.856175186e-05
0.01808333333,1.684154813e-05
0.01810416667,1.635454282e-05
0.018125,1.4232588e-05
0.01814583333,1.704953866e-05
0.01816666667,2.062174462e-05
0.0181875,2.372423842e-05
0.01820833333,2.769738239e-05
0.01822916667,3.315627691e-05
0.01825,3.771107004e-05
0.01827083333,3.590536653e-05
0.01829166667,3.694994302e-05
0.0183125,3.534424104e-05
0.01833333333,3.263633698e-05
0.01835416667,3.236068369e-05
0.018375,3.161517816e-05
0.01839583333,3.265920168e-05
0.01841666667,3.021406337e-05
0.0184375,2.570457036e-05
0.01845833333,1.91564468e-05
0.01847916667,1.735322439e-05
0.0185,2.202488213e-05
0.01852083333,2.406510248e-05
0.01854166667,2.277656313e-05
0.0185625,2.031861186e-05
0.01858333333,1.816586519e-05
0.01860416667,1.421149773e-05
0.018625,1.435179911e-05
0.01864583333,1.820689795e-05
0.01866666667,1.761252315e-05
0.0186875,1.958540815e-05
0.01870833333,1.641775816e-05
0.01872916667,2.132796544e-05
0.01875,2.238734305e-05
0.01877083333,2.340386891e-05
0.01879166667,2.20191796e-05
0.0188125,1.94913755e-05
0.01883333333,1.596768925e-05
0.01885416667,1.39091444e-05
0.018875,1.402492489e-05
0.01889583333,1.428792984e-05
0.01891666667,1.454362609e-05
0.0189375,1.250582864e-05
0.01895833333,6.145212865e-06
0.01897916667,3.669216312e-06
0.019,1.766998253e-06
0.01902083333,3.777620805e-06
0.01904166667,9.06510536e-07
0.0190625,-1.670892743e-06
0.01908333333,-4.996668395e-06
0.01910416667,-5.593323294e-06
0.019125,-3.132385018e-06
0.01914583333,2.567107003e-06
0.01916666667,7.91860657e-06
0.0191875,6.873884558e-06
0.01920833333,2.820393092e-06
0.01922916667,3.290413588e-06
0.01925,-2.40979989e-06
0.01927083333,-4.796063422e-06
0.01929166667,-1.070173221e-05
0.0193125,-1.514494943e-05
0.01933333333,-1.697899461e-05
0.01935416667,-1.571978828e-05
0.019375,-1.622819036e-05
0.01939583333,-1.398688983e-05
0.01941666667,-1.463940225e-05
0.0194375,-1.971717575e-05
0.01945833333,-2.665943975e-05
0.01947916667,-2.935168595e-05
0.0195,-2.43566119e-05
0.01952083333,-1.695202445e-05
0.01954166667,-1.482000971e-05
0.0195625,-1.497545964e-05
0.01958333333,-1.892438377e-05
0.01960416667,-2.131956353e-05
0.019625,-2.213986409e-05
0.01964583333,-1.69869636e-05
0.01966666667,-9.67197866e-06
0.0196875,-7.81388735e-06
0.01970833333,-6.894135367e-06
0.01972916667,-1.00478228e-05
0.01975,-1.383817926e-05
0.01977083333,-1.307680941e-05
0.01979166667,-1.642751704e-05
0.0198125,-1.424241054e-05
0.01983333333,-1.245223575e-05
0.01985416667,-9.817938917e-06
0.019875,-3.171195203e-06
0.01989583333,-1.73114222e-06
0.01991666667,3.019793439e-06
0.0199375,7.10968834e-06
0.01995833333,5.468879863e-06
0.01997916667,-6.914206551e-06
0.02,-2.534154919e-05
0.02002083333,-3.285230559e-05
0.02004166667,-3.671159357e-05
0.0200625,-3.835445386e-05
0.02008333333,-3.835090683e-05
0.02010416667,-3.967425437e-05
0.020125,-3.696713247e-05
0.02014583333,-2.739220872e-05
0.02016666667,-1.88424965e-05
0.0201875,-7.175391602e-06
0.02020833333,1.024122867e-06
0.02022916667,4.860876288e-06
0.02025,3.187637049e-06
0.02027083333,-2.776257134e-06
0.02029166667,-1.368185349e-05
0.0203125,-2.19589856e-05
0.02033333333,-2.824450348e-05
0.02035416667,-2.735855924e-05
0.020375,-2.7125001e-05
0.02039583333,-2.542964285e-05
0.02041666667,-2.728313302e-05
0.0204375,-2.065270746e-05
0.02045833333,-1.013278143e-05
0.02047916667,-8.697625162e-07
0.0205,7.631344488e-06
0.02052083333,1.00584366e-05
0.02054166667,1.114916449e-05
0.0205625,7.342401659e-06
0.02058333333,1.946329576e-06
0.02060416667,-6.008262062e-06
0.020625,-1.266748859e-05
0.02064583333,-2.011656761e-05
0.02066666667,-2.665295142e-05
0.0206875,-2.589074211e-05
0.02070833333,-2.200169365e-05
0.02072916667,-1.219287515e-05
0.02075,-4.26997758e-06
0.02077083333,-2.890403266e-06
0.02079166667,-4.96156099e-06
0.0208125,-1.394091942e-05
0.02083333333,-1.443872407e-05
0.02085416667,-1.159163912e-05
0.020875,-1.169764619e-05
0.02089583333,-9.245484762e-06
0.02091666667,-1.537528078e-05
0.0209375,-2.054867036e-05
0.02095833333,-1.70247713e-05
0.02097916667,-1.502840496e-05
0.021,-1.261047692e-05
0.02102083333,-7.505026588e-06
0.02104166667,-1.130923556e-05
0.0210625,-1.06842399e-05
0.02108333333,-7.465992894e-06
0.02110416667,-6.248861609e-06
0.021125,-6.636091712e-06
0.02114583333,-1.206671004e-05
0.02116666667,-2.407902866e-05
0.0211875,-4.926739348e-05
0.02120833333,-6.454787217e-05
0.02122916667,-6.626416871e-05
0.02125,-5.855822383e-05
0.02127083333,-4.360022649e-05
0.02129166667,-3.754224963e-05
0.0213125,-3.903607649e-05
0.02133333333,-3.621320502e-05
0.02135416667,-3.163585279e-05
0.021375,-2.641942774e-05
0.02139583333,-1.982903632e-05
0.02141666667,-2.144994505e-05
0.0214375,-3.234045289e-05
0.02145833333,-4.125669511e-05
0.02147916667,-4.69249826e-05
0.0215,-4.033142613e-05
0.02152083333,-3.574288348e-05
0.02154166667,-3.548733366e-05
0.0215625,-4.165810242e-05
0.02158333333,-4.968467692e-05
0.02160416667,-4.954174801e-05
0.021625,-4.274519233e-05
0.02164583333,-3.061755706e-05
0.02166666667,-3.619378913e-05
0.0216875,-4.763365359e-05
0.02170833333,-6.639018829e-05
0.02172916667,-7.90857448e-05
0.02175,-8.268062084e-05
0.02177083333,-8.379459905e-05
0.02179166667,-7.615118375e-05
0.0218125,-7.305831969e-05
0.02183333333,-7.851248665e-05
0.02185416667,-7.693156658e-05
0.021875,-6.852411025e-05
0.02189583333,-4.852576603e-05
0.02191666667,-3.75395648e-05
0.0219375,-4.900457861e-05
0.02195833333,-6.911639503e-05
0.02197916667,-9.172971477e-05
0.022,-0.0001049296116
0.02202083333,-9.195737948e-05
0.02204166667,-7.693683438e-05
0.0220625,-7.009421824e-05
0.02208333333,-6.669708091e-05
0.02210416667,-7.528945571e-05
0.022125,-7.809380622e-05
0.02214583333,-6.63479077e-05
0.02216666667,-5.95761594e-05
0.0221875,-5.875369607e-05
0.02220833333,-7.291495422e-05
0.02222916667,-8.83594912e-05
0.02225,-9.671235603e-05
0.02227083333,-9.844115993e-05
0.02229166667,-9.683178359e-05
0.0223125,-0.0001010915366
0.02233333333,-0.0001055444009
0.02235416667,-0.0001132631805
0.022375,-0.0001069689752
0.02239583333,-8.433061885e-05
0.02241666667,-6.192272849e-05
0.0224375,-4.941630323e-05
0.02245833333,-6.110430695e-05
0.02247916667,-9.802389104e-05
0.0225,-0.0001391847036
0.02252083333,-0.0001615688961
0.02254166667,-0.0001665083546
0.0225625,-0.0001479358471
0.02258333333,-0.0001326872589
0.02260416667,-0.0001298414427
0.022625,-0.0001363569754
0.02264583333,-0.0001397354936
0.02266666667,-0.0001275129907
0.0226875,-0.000104213279
0.02270833333,-9.355945804e-05
0.02272916667,-9.28707741e-05
0.02275,-0.0001036675603
0.02277083333,-0.0001179784595
0.02279166667,-0.0001212386342
0.0228125,-0.0001204938235
0.02283333333,-0.0001116593994
0.02285416667,-0.0001112667378
0.022875,-0.0001199418039
0.02289583333,-0.0001152986515
0.02291666667,-0.0001019550255
0.0229375,-7.784809713e-05
0.02295833333,-6.149291585e-05
0.02297916667,-6.149204273e-05
0.023,-8.272381092e-05
0.02302083333,-0.0001134724953
0.02304166667,-0.0001350974926
0.0230625,-0.0001445930538
0.02308333333,-0.0001375382126
0.02310416667,-0.0001368337835
0.023125,-0.0001581161923
0.02314583333,-0.0001730608492
0.02316666667,-0.0001822948107
0.0231875,-0.0001846901141
0.02320833333,-0.0001567411964
0.02322916667,-0.0001401630434
0.02325,-0.0001364614727
0.02327083333,-0.0001363294868
0.02329166667,-0.0001465688547
0.0233125,-0.0001544611296
0.02333333333,-0.0001484246459
0.02335416667,-0.000142225821
0.023375,-0.0001414378348
0.02339583333,-0.0001401554182
0.02341666667,-0.0001505630207
0.0234375,-0.0001579265954
0.02345833333,-0.0001391702972
0.02347916667,-0.0001300870936
0.0235,-0.0001301361481
0.02352083333,-0.0001386211661
0.02354166667,-0.0001595504436
0.0235625,-0.0001675935055
0.02358333333,-0.0001653547079
0.02360416667,-0.0001579973905
0.023625,-0.0001459761988
0.02364583333,-0.0001458928018
0.02366666667,-0.0001568873413
0.0236875,-0.0001660080889
0.02370833333,-0.0001762426837
0.02372916667,-0.0001715298276
0.02375,-0.0001682361763
0.02377083333,-0.0001619175018
0.02379166667,-0.0001701358269
0.0238125,-0.0001730715012
0.02383333333,-0.0001886966202
0.02385416667,-0.0001917817572
0.023875,-0.0001909403509
0.02389583333,-0.0001933044696
0.02391666667,-0.0002046430309
0.0239375,-0.0002194614208
0.02395833333,-0.0002194266708
0.02397916667,-0.0002128053893
0.024,-0.0002021577675
0.02402083333,-0.0002010895987
0.02404166667,-0.0002099846315
0.0240625,-0.0002288088581
0.02408333333,-0.0002422101534
0.02410416667,-0.0002425965649
0.024125,-0.0002275158768
0.02414583333,-0.0002186128695
0.02416666667,-0.0002132894006
0.0241875,-0.0002082745195
0.02420833333,-0.0002090301277
0.02422916667,-0.000207707737
0.02425,-0.0002064006112
0.02427083333,-0.0002058903337
0.02429166667,-0.0002107413893
0.0243125,-0.000221234819
0.02433333333,-0.0002316148311
0.02435416667,-0.0002385626431
0.024375,-0.0002337830665
0.02439583333,-0.0002278942993
0.02441666667,-0.0002349948045
0.0244375,-0.0002519590198
0.02445833333,-0.0002664099447
0.02447916667,-0.0002798464848
0.0245,-0.000285149843
0.02452083333,-0.0002860484819
0.02454166667,-0.0002827571589
0.0245625,-0.0002890966716
0.02458333333,-0.0003035944246
0.02460416667,-0.0003118896275
0.024625,-0.0003103320487
0.02464583333,-0.0003065568744
0.02466666667,-0.0002963453881
0.0246875,-0.000298873405
0.02470833333,-0.0002975011012
0.02472916667,-0.0003066357749
0.02475,-0.0003122268536
0.02477083333,-0.0003005457693
0.02479166667,-0.000293153571
0.0248125,-0.0002965907333
0.02483333333,-0.0003044944606
0.02485416667,-0.0003139774199
0.024875,-0.0003162905341
0.02489583333,-0.0003030827211
0.02491666667,-0.0002805432887
0.0249375,-0.0002553915838
0.02495833333,-0.000232603139
0.02497916667,-0.000221208611
0.025,-0.0002315732854
0.02502083333,-0.0002477016533
0.02504166667,-0.0002681968035
0.0250625,-0.0002889014431
0.02508333333,-0.0002975114912
0.02510416667,-0.0003036213748
0.025125,-0.0003056905116
0.02514583333,-0.0002993702074
0.02516666667,-0.0002946932509
0.0251875,-0.0002945812012
0.02520833333,-0.0002907411545
0.02522916667,-0.0002997006231
0.02525,-0.0003111466649
0.02527083333,-0.0003226004483
0.02529166667,-0.0003275399213
0.0253125,-0.0003362900752
0.02533333333,-0.0003372224164
0.02535416667,-0.0003402722359
0.025375,-0.0003413097584
0.02539583333,-0.0003360399569
0.02541666667,-0.0003271780151
0.0254375,-0.0003230209695
0.02545833333,-0.0003064330958
0.02547916667,-0.0002821812814
0.0255,-0.0002658992016
0.02552083333,-0.000255332212
0.02554166667,-0.0002518222609
0.0255625,-0.000258040498
0.02558333333,-0.0002468583407
0.02560416667,-0.0002448037849
0.025625,-0.0002543712326
0.02564583333,-0.0002599839063
0.02566666667,-0.0002744323574
0.0256875,-0.0002842945978
0.02570833333,-0.0002813275787
0.02572916667,-0.0002781760995
0.02575,-0.0002795571345
0.02577083333,-0.000275549246
0.02579166667,-0.0002915217774
0.0258125,-0.0003209220304
0.02583333333,-0.0003355855879
0.02585416667,-0.0003383569419
0.025875,-0.0003400773567
0.02589583333,-0.0003314135829
0.02591666667,-0.0003309471067
0.0259375,-0.0003394194937
0.02595833333,-0.0003343216958
0.02597916667,-0.0003297949152
0.026,-0.0003334764624
0.02602083333,-0.0003329760511
0.02604166667,-0.00034488659
0.0260625,-0.0003663409152
0.02608333333,-0.0003708815784
0.02610416667,-0.0003686536802
0.026125,-0.0003413912491
0.02614583333,-0.0003217271878
0.02616666667,-0.0003278036311
0.0261875,-0.0003394937376
0.02620833333,-0.0003455560072
0.02622916667,-0.0003556464508
0.02625,-0.0003414554521
0.02627083333,-0.0003341582778
0.02629166667,-0.0003331496555
0.0263125,-0.0003533007402
0.02633333333,-0.0003593969159
0.02635416667,-0.0003553985443
0.026375,-0.0003400484566
0.02639583333,-0.0003203493543
0.02641666667,-0.0003013905371
0.0264375,-0.0003067745711
0.02645833333,-0.0003072209947
0.02647916667,-0.0003178486368
0.0265,-0.0003105764044
0.02652083333,-0.0003118057211
0.02654166667,-0.0003289550077
0.0265625,-0.0003691462334
0.02658333333,-0.000410359964
0.02660416667,-0.0004328112991
0.026625,-0.0004340775486
0.02664583333,-0.000424284488
0.02666666667,-0.0004204260767
0.0266875,-0.0004346850619
0.02670833333,-0.0004549759615
0.02672916667,-0.0004623091081
0.02675,-0.0004546709824
0.02677083333,-0.0004375640419
0.02679166667,-0.0004372859839
0.0268125,-0.0004636631056
0.02683333333,-0.0005084683653
0.02685416667,-0.0005401602248
0.026875,-0.0005327310646
0.02689583333,-0.0004881351197
0.02691666667,-0.0004504329409
0.0269375,-0.0004313638783
0.02695833333,-0.0004284426395
0.02697916667,-0.0004435839364
0.027,-0.0004463727237
0.02702083333,-0.0004183923884
0.02704166667,-0.0003976051812
0.0270625,-0.0004114742624
0.02708333333,-0.0004373152624
0.02710416667,-0.0004799996095
0.027125,-0.000496068038
0.02714583333,-0.0004805224016
0.02716666667,-0.0004667388275
0.0271875,-0.0004535609041
0.02720833333,-0.0004744823091
0.02722916667,-0.0005084934528
0.02725,-0.000506957178
0.02727083333,-0.0004846473748
0.02729166667,-0.0004534152686
0.0273125,-0.0004560270172
0.02733333333,-0.0004886297393
0.02735416667,-0.0005514792283
0.027375,-0.0005863394472
0.02739583333,-0.0005936498637
0.02741666667,-0.0005669947714
0.0274375,-0.000547934731
0.02745833333,-0.0005561151775
0.02747916667,-0.0006060961168
0.0275,-0.0006461356534
0.02752083333,-0.0006631792057
0.02754166667,-0.000639827922
0.0275625,-0.0006111480761
0.02758333333,-0.0005969363847
0.02760416667,-0.000617704005
0.027625,-0.0006411783397
0.02764583333,-0.0006420783466
0.02766666667,-0.0006056948332
0.0276875,-0.0005473049823
0.02770833333,-0.0005034870119
0.02772916667,-0.0005064530997
0.02775,-0.0005292998976
0.02777083333,-0.0005455889041
0.02779166667,-0.0005421090755
0.0278125,-0.0005259955651
0.02783333333,-0.0005110785714
0.02785416667,-0.0005213029799
0.027875,-0.0005386777921
0.02789583333,-0.000532996899
0.02791666667,-0.0005319672055
0.0279375,-0.0005221705069
0.02795833333,-0.0004992660834
0.02797916667,-0.0005307868705
0.028,-0.0005737036117
0.02802083333,-0.0005988421617
0.02804166667,-0.0006289263256
0.0280625,-0.0006414719974
0.02808333333,-0.0006414464442
0.02810416667,-0.0006654415629
0.028125,-0.0006852698862
0.02814583333,-0.0007060213247
0.02816666667,-0.0007230537012
0.0281875,-0.0007014325238
0.02820833333,-0.0006653606542
0.02822916667,-0.0006400806014
0.02825,-0.0006359054823
0.02827083333,-0.0006415741518
0.02829166667,-0.0006644938258
0.0283125,-0.0006766654551
0.02833333333,-0.0006786399172
0.02835416667,-0.0006936428836
0.028375,-0.0006784679717
0.02839583333,-0.000684488914
0.02841666667,-0.0006963677588
0.0284375,-0.0006838685949
0.02845833333,-0.000653077499
0.02847916667,-0.000649460766
0.0285,-0.0006638286868
0.02852083333,-0.0006834167871
0.02854166667,-0.0007237177924
0.0285625,-0.0007595793577
0.02858333333,-0.0007995218621
0.02860416667,-0.0008301096968
0.028625,-0.0008352114819
0.02864583333,-0.0007978506619
0.02866666667,-0.0007775975391
0.0286875,-0.0007480789209
0.02870833333,-0.000765022065
0.02872916667,-0.0008416115306
0.02875,-0.0009141258779
0.02877083333,-0.0009290787275
0.02879166667,-0.0009495331324
0.0288125,-0.0009553750278
0.02883333333,-0.000966449501
0.02885416667,-0.001045539742
0.028875,-0.001154453494
0.02889583333,-0.001196013298
0.02891666667,-0.001241717022
0.0289375,-0.001232030452
0.02895833333,-0.001171716023
0.02897916667,-0.001183154411
0.029,-0.001245714608
0.02902083333,-0.001289290376
0.02904166667,-0.001370567596
0.0290625,-0.001414213795
0.02908333333,-0.001458109939
0.02910416667,-0.001484370674
0.029125,-0.001513640629
0.02914583333,-0.001477297395
0.02916666667,-0.001460666768
0.0291875,-0.001390489051
0.02920833333,-0.00132651988
0.02922916667,-0.001309574
0.02925,-0.001355582266
0.02927083333,-0.001445661415
0.02929166667,-0.001489450922
0.0293125,-0.001515169279
0.02933333333,-0.001467991155
0.02935416667,-0.001464842935
0.029375,-0.001551025081
0.02939583333,-0.001585793216
0.02941666667,-0.00169597182
0.0294375,-0.001706398907
0.02945833333,-0.001611753018
0.02947916667,-0.001430652337
0.0295,-0.001349240658
0.02952083333,-0.001334968721
0.02954166667,-0.001516116201
0.0295625,-0.001739599975
0.02958333333,-0.001871673507
0.02960416667,-0.001989391632
0.029625,-0.001936031273
0.02964583333,-0.001902996795
0.02966666667,-0.001851217239
0.0296875,-0.001892154687
0.02970833333,-0.001946198521
0.02972916667,-0.001911741449
0.02975,-0.001939172158
0.02977083333,-0.001813066192
0.02979166667,-0.00190771278
0.0298125,-0.00201379857
0.02983333333,-0.002157878596
0.02985416667,-0.002415974159
0.029875,-0.002465886995
0.02989583333,-0.002372513292
0.02991666667,-0.002419607481
0.0299375,-0.002732745837
0.02995833333,-0.00329200644
0.02997916667,-0.003813719377
0.03,0.0009457455599
0.03002083333,0.0004574922204
0.03004166667,-6.009439858e-06
0.0300625,-0.0002273830614
0.03008333333,-0.0002102817525
0.03010416667,-5.894264541e-05
0.030125,-6.724235573e-05
0.03014583333,-0.0002868925512
0.03016666667,-0.0004266083997
0.0301875,-0.0004740571021
0.03020833333,-0.0004708846682
0.03022916667,-0.0002765311801
0.03025,-0.0002785381803
0.03027083333,-0.0002139776188
0.03029166667,-0.0001924932731
0.0303125,-0.0001201349951
0.03033333333,-3.026312697e-05
0.03035416667,9.156917804e-05
0.030375,0.0002092364884
0.03039583333,9.697059431e-05
0.03041666667,-1.293082551e-05
0.0304375,-0.0002194247354
0.03045833333,-0.0003702618123
0.03047916667,-0.0003927409998
0.0305,-0.000424900034
0.03052083333,-8.151569637e-05
0.03054166667,0.0002630638774
0.0305625,0.0005594367394
0.03058333333,0.0007429411635
0.03060416667,0.0009818822145
0.030625,0.00122120732
0.03064583333,0.001583914505
0.03066666667,0.001844296698
0.0306875,0.001994587248
0.03070833333,0.002063442953
0.03072916667,0.002005157294
0.03075,0.001954308245
0.03077083333,0.001987852855
0.03079166667,0.002140381141
0.0308125,0.002265043324
0.03083333333,0.00228076987
0.03085416667,0.002231044928
0.030875,0.002169714542
0.03089583333,0.002160604345
0.03091666667,0.002222820884
0.0309375,0.002288519172
0.03095833333,0.002218960784
0.03097916667,0.002170543186
0.031,0.002269275254
0.03102083333,0.002558799926
0.03104166667,0.002642158652
0.0310625,0.002692584181
0.03108333333,0.002718488453
0.03110416667,0.00270166737
0.031125,0.002560533816
0.03114583333,0.00250912318
0.03116666667,0.002563652582
0.0311875,0.002596494975
0.03120833333,0.002618253697
0.03122916667,0.002457131632
0.03125,0.002334847348
0.03127083333,0.002418577438
0.03129166667,0.00247489661
0.0313125,0.002446976723
0.03133333333,0.002476413501
0.03135416667,0.002572467318
0.031375,0.002508019097
0.03139583333,0.002398935147
0.03141666667,0.002554117702
0.0314375,0.00276957755
0.03145833333,0.003008517204
0.03147916667,0.003247300629
0.0315,0.003452550853
0.03152083333,0.00362507673
0.03154166667,0.003924460616
0.0315625,0.00401550252
0.03158333333,0.004083094653
0.03160416667,0.004002712201
0.031625,0.003974596504
0.03164583333,0.003862521844
0.03166666667,0.003736944636
0.0316875,0.003591977758
0.03170833333,0.003396944609
0.03172916667,0.003199860686
0.03175,0.002946982393
0.03177083333,0.002761707176
0.03179166667,0.002576272236
0.0318125,0.002420341596
0.03183333333,0.002278141445
0.03185416667,0.002253558487
0.031875,0.002259513829
0.03189583333,0.002111852402
0.03191666667,0.002089638729
0.0319375,0.002403882798
0.03195833333,0.002696629148
0.03197916667,0.002862320282
0.032,0.002962227445
0.03202083333,0.00290009263
0.03204166667,0.002949004527
0.0320625,0.003037837101
0.03208333333,0.003147733398
0.03210416667,0.00330498605
0.032125,0.003336993977
0.03214583333,0.003331071232
0.03216666667,0.003227108624
0.0321875,0.003157581901
0.03220833333,0.003263460007
0.03222916667,0.003347238526
0.03225,0.003292289795
0.03227083333,0.00331356586
0.03229166667,0.003383728443
0.0323125,0.00348694413
0.03233333333,0.003596139606
0.03235416667,0.003556480631
0.032375,0.003482324071
0.03239583333,0.003385182237
0.03241666667,0.003365554381
0.0324375,0.003283104859
0.03245833333,0.003241182072
0.03247916667,0.003167794086
0.0325,0.003036482725
0.03252083333,0.002929072361
0.03254166667,0.002803009935
0.0325625,0.002774239052
0.03258333333,0.002723395592
0.03260416667,0.002623570617
0.032625,0.002494033193
0.03264583333,0.002377452794
0.03266666667,0.002277981257
0.0326875,0.002136579249
0.03270833333,0.002073141048
0.03272916667,0.002074762946
0.03275,0.002063197084
0.03277083333,0.002011141041
0.03279166667,0.001980991568
0.0328125,0.002054691315
0.03283333333,0.002080388367
0.03285416667,0.002136319876
0.032875,0.002174626105
0.03289583333,0.002189318417
0.03291666667,0.002207409358
0.0329375,0.002227062592
0.03295833333,0.002196411137
0.03297916667,0.002265709918
0.033,0.002229586942
0.03302083333,0.002210827777
0.03304166667,0.002201815136
0.0330625,0.002197886584
0.03308333333,0.002216366585
0.03310416667,0.002264233306
0.033125,0.002277776599
0.03314583333,0.002209157683
0.03316666667,0.002176612616
0.0331875,0.002119022654
0.03320833333,0.002070127288
0.03322916667,0.001980253728
0.03325,0.001949923579
0.03327083333,0.001942382194
0.03329166667,0.001884748926
0.0333125,0.001882583601
0.03333333333,0.00188366673
0.03335416667,0.001892961329
0.033375,0.001884032739
0.03339583333,0.001875126036
0.03341666667,0.001855127979
0.0334375,0.001845841645
0.03345833333,0.00183931971
0.03347916667,0.001828698907
0.0335,0.001873398549
0.03352083333,0.001882269746
0.03354166667,0.001923440257
0.0335625,0.001937904046
0.03358333333,0.001949905069
0.03360416667,0.002038420178
0.033625,0.002105424181
0.03364583333,0.002135683317
0.03366666667,0.002201962518
0.0336875,0.00217516371
0.03370833333,0.002222887008
0.03372916667,0.002266301773
0.03375,0.002241209382
0.03377083333,0.002233235165
0.03379166667,0.00226292247
0.0338125,0.002239920432
0.03383333333,0.002272656886
0.03385416667,0.002361591905
0.033875,0.002427284606
0.03389583333,0.00243988866
0.03391666667,0.002504351549
0.0339375,0.002483195858
0.03395833333,0.002464095363
0.03397916667,0.002511201892
0.034,0.002451863606
0.03402083333,0.002476774622
0.03404166667,0.002488611266
0.0340625,0.002464474412
0.03408333333,0.002439053962
0.03410416667,0.002431706758
0.034125,0.00244621397
0.03414583333,0.002479248913
0.03416666667,0.00250515854
0.0341875,0.002487084595
0.03420833333,0.002521125134
0.03422916667,0.002558934968
0.03425,0.00258719665
0.03427083333,0.002597301267
0.03429166667,0.002642164938
0.0343125,0.002691642847
0.03433333333,0.002699929988
0.03435416667,0.002786832862
0.034375,0.002814099891
0.03439583333,0.002888320247
0.03441666667,0.002943198197
0.0344375,0.002921106759
0.03445833333,0.002943272237
0.03447916667,0.002949410118
0.0345,0.002981525846
0.03452083333,0.002954853931
0.03454166667,0.002937870566
0.0345625,0.002952004084
0.03458333333,0.00297177257
0.03460416667,0.002927779453
0.034625,0.00299887592
0.03464583333,0.002993499162
0.03466666667,0.002986027859
0.0346875,0.002964755055
0.03470833333,0.002932306612
0.03472916667,0.002985724714
0.03475,0.002919691848
0.03477083333,0.002890898148
0.03479166667,0.002853449201
0.0348125,0.002871244913
0.03483333333,0.002885732334
0.03485416667,0.0028480771
0.034875,0.002859782195
0.03489583333,0.002877313411
0.03491666667,0.002940239385
0.0349375,0.002973736962
0.03495833333,0.003072568681
0.03497916667,0.003092133207
0.035,0.003102703486
0.03502083333,0.003168133786
0.03504166667,0.003215129487
0.0350625,0.003204501234
0.03508333333,0.003221253632
0.03510416667,0.003280122066
0.035125,0.003291871864
0.03514583333,0.003326389473
0.03516666667,0.003406425472
0.0351875,0.003456478007
0.03520833333,0.003548105014
0.03522916667,0.003667501733
0.03525,0.003689607605
0.03527083333,0.003746707458
0.03529166667,0.003789927112
0.0353125,0.003828870831
0.03533333333,0.003836843884
0.03535416667,0.00386326341
0.035375,0.003913119435
0.03539583333,0.003950654529
0.03541666667,0.003999850713
0.0354375,0.004073958844
0.03545833333,0.004104489461
0.03547916667,0.004124569707
0.0355,0.004160277545
0.03552083333,0.004188615829
0.03554166667,0.004199874587
0.0355625,0.004205203149
0.03558333333,0.004223921336
0.03560416667,0.004223840311
0.035625,0.004233282059
0.03564583333,0.004173592664
0.03566666667,0.004159507342
0.0356875,0.00416462915
0.03570833333,0.004153306596
0.03572916667,0.004158934578
0.03575,0.004191001877
0.03577083333,0.004237564746
0.03579166667,0.00418215245
0.0358125,0.004165901802
0.03583333333,0.004174447618
0.03585416667,0.004205536563
0.035875,0.004209394567
0.03589583333,0.004192927387
0.03591666667,0.004160834942
0.0359375,0.004128283355
0.03595833333,0.004123585299
0.03597916667,0.004125853069
0.036,0.004133530427
0.03602083333,0.004162245896
0.03604166667,0.004162015393
0.0360625,0.004172240384
0.03608333333,0.004181707278
0.03610416667,0.004162260797
0.036125,0.004183897749
0.03614583333,0.004207849503
0.03616666667,0.004198500421
0.0361875,0.004244975746
0.03620833333,0.004286622163
0.03622916667,0.004286425654
0.03625,0.004312364385
0.03627083333,0.004361044616
0.03629166667,0.004355394281
0.0363125,0.004412297625
0.03633333333,0.004413942341
0.03635416667,0.004396389704
0.036375,0.004472904373
0.03639583333,0.004530446604
0.03641666667,0.004576522391
0.0364375,0.004558426794
0.03645833333,0.00457697548
0.03647916667,0.004585177172
0.0365,0.004596963525
0.03652083333,0.004663686268
0.03654166667,0.004774208181
0.0365625,0.004821680021
0.03658333333,0.004832511768
0.03660416667,0.004846518394
0.036625,0.004888430238
0.03664583333,0.004911484197
0.03666666667,0.004930738825
0.0366875,0.004926515277
0.03670833333,0.004919273779
0.03672916667,0.005032748915
0.03675,0.005028177984
0.03677083333,0.005021376535
0.03679166667,0.005100640003
0.0368125,0.005008973181
0.03683333333,0.004961160943
0.03685416667,0.004952804185
0.036875,0.004871175159
0.03689583333,0.004886876792
0.03691666667,0.00495930668
0.0369375,0.004937075078
0.03695833333,0.004880119581
0.03697916667,0.004863996059
0.037,0.004772131331
0.03702083333,0.004755851813
0.03704166667,0.004771237727
0.0370625,0.004804996774
0.03708333333,0.004871294834
0.03710416667,0.00486118393
0.037125,0.004872136284
0.03714583333,0.004887815565
0.03716666667,0.00488406606
0.0371875,0.00486565195
0.03720833333,0.004838098772
0.03722916667,0.004813524894
0.03725,0.004778390285
0.03727083333,0.004711390939
0.03729166667,0.004672019742
0.0373125,0.004626907874
0.03733333333,0.004669057671
0.03735416667,0.004712706432
0.037375,0.004755810369
0.03739583333,0.004750228487
0.03741666667,0.004738358315
0.0374375,0.004731039051
0.03745833333,0.004665179178
0.03747916667,0.004618549719
0.0375,0.004566821735
0.03752083333,0.004551664926
0.03754166667,0.004546870477
0.0375625,0.004568672273
0.03758333333,0.004534862004
0.03760416667,0.004569119774
0.037625,0.004604748916
0.03764583333,0.004543628544
0.03766666667,0.004547114484
0.0376875,0.004417021759
0.03770833333,0.004291307181
0.03772916667,0.004177233204
0.03775,0.004044820555
0.03777083333,0.003954101354
0.03779166667,0.003862979822
0.0378125,0.003802281804
0.03783333333,0.003709542332
0.03785416667,0.003624938894
0.037875,0.003601012286
0.03789583333,0.00355017744
0.03791666667,0.003562755417
0.0379375,0.003521608654
0.03795833333,0.003454119666
0.03797916667,0.003482496366
0.038,0.003472140525
0.03802083333,0.003514296841
0.03804166667,0.003507667454
0.0380625,0.003467405215
0.03808333333,0.00341996504
0.03810416667,0.003377409186
0.038125,0.003294725204
0.03814583333,0.003191288095
0.03816666667,0.003184318077
0.0381875,0.003152901307
0.03820833333,0.003157722997
0.03822916667,0.003137729596
0.03825,0.003072891152
0.03827083333,0.00301685743
0.03829166667,0.00293406751
0.0383125,0.002834203653
0.03833333333,0.002736312803
0.03835416667,0.002692290582
0.038375,0.002626822796
0.03839583333,0.002515282948
0.03841666667,0.002482207492
0.0384375,0.002454899251
0.03845833333,0.002476379508
0.03847916667,0.002469822299
0.0385,0.002477292437
0.03852083333,0.002455723006
0.03854166667,0.002372434828
0.0385625,0.002321681939
0.03858333333,0.002301800065
0.03860416667,0.00236979383
0.038625,0.002415120602
0.03864583333,0.002445581369
0.03866666667,0.002454237081
0.0386875,0.002475852612
0.03870833333,0.002520016162
0.03872916667,0.002531507052
0.03875,0.00253406819
0.03877083333,0.002527058357
0.03879166667,0.00246822089
0.0388125,0.002312557772
0.03883333333,0.002212630585
0.03885416667,0.002141149016
0.038875,0.002029702533
0.03889583333,0.001989914104
0.03891666667,0.001925439341
0.0389375,0.001900319709
0.03895833333,0.001839028439
0.03897916667,0.001817572047
0.039,0.001782797743
0.03902083333,0.001771832816
0.03904166667,0.001788333291
0.0390625,0.001825711224
0.03908333333,0.001817029901
0.03910416667,0.001855748706
0.039125,0.001814367133
0.03914583333,0.001757923514
0.03916666667,0.00175099622
0.0391875,0.001659388887
0.03920833333,0.001617571572
0.03922916667,0.001565262792
0.03925,0.001512909424
0.03927083333,0.001477514044
0.03929166667,0.0014721232
0.0393125,0.001344850287
0.03933333333,0.001243318664
0.03935416667,0.001195252524
0.039375,0.001067746431
0.03939583333,0.0009991326369
0.03941666667,0.0009055827395
0.0394375,0.0008379346691
0.03945833333,0.0007771519595
0.03947916667,0.0006947955117
0.0395,0.0006065779598
0.03952083333,0.0005533835501
0.03954166667,0.0005088201724
0.0395625,0.0004302628513
0.03958333333,0.0003939542512
0.03960416667,0.0003643365053
0.039625,0.0004123210092
0.03964583333,0.000368486013
0.03966666667,0.0003115210566
0.0396875,0.0002325442911
0.03970833333,0.0001134744307
0.03972916667,3.189285053e-06
0.03975,-0.0001137986983
0.03977083333,-0.0002514392254
0.03979166667,-0.0004000166955
0.0398125,-0.0004843631759
0.03983333333,-0.000625075365
0.03985416667,-0.0007476448664
0.039875,-0.0008904549759
0.03989583333,-0.001037183101
0.03991666667,-0.001112566213
0.0399375,-0.001243564417
0.03995833333,-0.001350643346
0.03997916667,-0.001520840451
0.04,-0.001692827675
0.04002083333,-0.001871990622
0.04004166667,-0.001993979095
0.0400625,-0.002047493123
0.04008333333,-0.002172445413
0.04010416667,-0.002143228194
0.040125,-0.002147124847
0.04014583333,-0.002136505209
0.04016666667,-0.002220306778
0.0401875,-0.002258301945
0.04020833333,-0.002277113264
0.04022916667,-0.002318500774
0.04025,-0.002437749179
0.04027083333,-0.00252914452
0.04029166667,-0.002568450756
0.0403125,-0.00270091556
0.04033333333,-0.002724025631
0.04035416667,-0.00277827261
0.040375,-0.002822930226
0.04039583333,-0.002905362984
0.04041666667,-0.003001775593
0.0404375,-0.003029562533
0.04045833333,-0.003093617968
0.04047916667,-0.003096286673
0.0405,-0.003280112986
0.04052083333,-0.003390784375
0.04054166667,-0.003525380976
0.0405625,-0.003654652741
0.04058333333,-0.003748592455
0.04060416667,-0.003840399906
0.040625,-0.003907709848
0.04064583333,-0.004036284052
0.04066666667,-0.004086150788
0.0406875,-0.003996239044
0.04070833333,-0.003751856508
0.04072916667,-0.003451866563
0.04075,-0.003178915475
0.04077083333,-0.00298240874
0.04079166667,-0.002709306311
0.0408125,-0.002513280604
0.04083333333,-0.002479524352
0.04085416667,-0.002485936042
0.040875,-0.00251016696
0.04089583333,-0.002502112649
0.04091666667,-0.002543396316
0.0409375,-0.00262585259
0.04095833333,-0.002665664768
0.04097916667,-0.002747304039
0.041,-0.002936726203
0.04102083333,-0.003045943566
0.04104166667,-0.003154585836
0.0410625,-0.003237536876
0.04108333333,-0.003278174438
0.04110416667,-0.003322837641
0.041125,-0.003357846756
0.04114583333,-0.003378870897
0.04116666667,-0.003382368013
0.0411875,-0.003495367244
0.04120833333,-0.003527050139
0.04122916667,-0.003649351653
0.04125,-0.003718094667
0.04127083333,-0.003817373421
0.04129166667,-0.003919894807
0.0413125,-0.003888324136
0.04133333333,-0.003950565122
0.04135416667,-0.003980549518
0.041375,-0.004018309526
0.04139583333,-0.00399676431
0.04141666667,-0.003989320248
0.0414375,-0.003979429603
0.04145833333,-0.003878498683
0.04147916667,-0.003804028267
0.0415,-0.003723585978
0.04152083333,-0.003736686893
0.04154166667,-0.003784489119
0.0415625,-0.003818247234
0.04158333333,-0.003913037479
0.04160416667,-0.003957277164
0.041625,-0.004016406834
0.04164583333,-0.00405573938
0.04166666667,-0.004114956129
0.0416875,-0.004177421331
0.04170833333,-0.004276797641
0.04172916667,-0.004319623113
0.04175,-0.00441796938
0.04177083333,-0.004526649136
0.04179166667,-0.004582167603
0.0418125,-0.004699208774
0.04183333333,-0.004807688762
0.04185416667,-0.004961201455
0.041875,-0.005103716627
0.04189583333,-0.005218963604
0.04191666667,-0.005263947416
0.0419375,-0.005328649189
0.04195833333,-0.0053465534
0.04197916667,-0.005359976552
0.042,-0.005374362227
0.04202083333,-0.005279475823
0.04204166667,-0.005255747121
0.0420625,-0.005280638114
0.04208333333,-0.005444830749
0.04210416667,-0.005494158715
0.042125,-0.005518159829
0.04214583333,-0.005604524165
0.04216666667,-0.005662733223
0.0421875,-0.005770658609
0.04220833333,-0.005920541938
0.04222916667,-0.006064819172
0.04225,-0.006233904976
0.04227083333,-0.006281729322
0.04229166667,-0.006412988994
0.0423125,-0.006481826305
0.04233333333,-0.006635532249
0.04235416667,-0.00681656599
0.042375,-0.006974216551
0.04239583333,-0.007171681616
0.04241666667,-0.00738594681
0.0424375,-0.007479187101
0.04245833333,-0.007626180537
0.04247916667,-0.007858645171
0.0425,-0.008046494797
0.04252083333,-0.008241745643
0.04254166667,-0.00842516683
0.0425625,-0.008574030362
0.04258333333,-0.008659983054
0.04260416667,-0.00876723323
0.042625,-0.0089045614
0.04264583333,-0.009055527858
0.04266666667,-0.009208844975
0.0426875,-0.009299173951
0.04270833333,-0.009404286742
0.04272916667,-0.009528106079
0.04275,-0.009675886482
0.04277083333,-0.009723006748
0.04279166667,-0.009830393828
0.0428125,-0.009882318787
0.04283333333,-0.009934536181
0.04285416667,-0.01000501309
0.042875,-0.01004475728
0.04289583333,-0.01016446948
0.04291666667,-0.01026911195
0.0429375,-0.01043344382
0.04295833333,-0.01063387655
0.04297916667,-0.01082293037
0.043,-0.01094991155
0.04302083333,-0.01112051215
0.04304166667,-0.01123550441
0.0430625,-0.01132646017
0.04308333333,-0.01141359191
0.04310416667,-0.01146713179
0.043125,-0.01149548404
0.04314583333,-0.01150096394
0.04316666667,-0.01153634302
0.0431875,-0.01154905185
0.04320833333,-0.01154021546
0.04322916667,-0.01157711726
0.04325,-0.01148196496
0.04327083333,-0.01145459339
0.04329166667,-0.01132971887
0.0433125,-0.01126727927
0.04333333333,-0.01124700252
0.04335416667,-0.01119820867
0.043375,-0.0112438444
0.04339583333,-0.01119067799
0.04341666667,-0.01116945036
0.0434375,-0.01115280576
0.04345833333,-0.01109309029
0.04347916667,-0.01104431693
0.0435,-0.01101699099
0.04352083333,-0.01100175455
0.04354166667,-0.01096318942
0.0435625,-0.01086668111
0.04358333333,-0.01080019306
0.04360416667,-0.0107176695
0.043625,-0.01065002196
0.04364583333,-0.01060499996
0.04366666667,-0.01050085947
0.0436875,-0.01049183495
0.04370833333,-0.01045290194
0.04372916667,-0.01043700706
0.04375,-0.01048285607
0.04377083333,-0.01053616125
0.04379166667,-0.0105333114
0.0438125,-0.01047714707
0.04383333333,-0.01047036611
0.04385416667,-0.01038919669
0.043875,-0.01033220161
0.04389583333,-0.01031449344
0.04391666667,-0.01032165624
0.0439375,-0.01025544107
0.04395833333,-0.01014866121
0.04397916667,-0.01009068824
0.044,-0.01002916787
0.04402083333,-0.009967530146
0.04404166667,-0.009894512594
0.0440625,-0.009890606627
0.04408333333,-0.009815873578
0.04410416667,-0.009886504151
0.044125,-0.00991912093
0.04414583333,-0.009922509082
0.04416666667,-0.009946959093
0.0441875,-0.009956576861
0.04420833333,-0.01003670413
0.04422916667,-0.01004473399
0.04425,-0.01006099954
0.04427083333,-0.010010981
0.04429166667,-0.009945944883
0.0443125,-0.009928629734
0.04433333333,-0.009886099026
0.04435416667,-0.009887075983
0.044375,-0.009907943197
0.04439583333,-0.009911664762
0.04441666667,-0.009926689789
0.0444375,-0.009917057119
0.04445833333,-0.009942273609
0.04447916667,-0.00997213833
0.0445,-0.009987585247
0.04452083333,-0.01001641992
0.04454166667,-0.01004816033
0.0445625,-0.01001772936
0.04458333333,-0.01004393678
0.04460416667,-0.01003139745
0.044625,-0.009964201599
0.04464583333,-0.00992898643
0.04466666667,-0.009877514094
0.0446875,-0.009908026084
0.04470833333,-0.009899782948
0.04472916667,-0.009945620783
0.04475,-0.009992114268
0.04477083333,-0.0100225294
0.04479166667,-0.01007226948
0.0448125,-0.01009294018
0.04483333333,-0.01014839113
0.04485416667,-0.01019760128
0.044875,-0.01024727337
0.04489583333,-0.01023652498
0.04491666667,-0.01021942869
0.0449375,-0.01017569844
0.04495833333,-0.01018746756
0.04497916667,-0.01021905337
0.045,-0.01033376716
0.04502083333,-0.01037588529
0.04504166667,-0.01042975392
0.0450625,-0.01045598462
0.04508333333,-0.01045892667
0.04510416667,-0.01055154484
0.045125,-0.01062133349
0.04514583333,-0.0106533803
0.04516666667,-0.01069267094
0.0451875,-0.01072640158
0.04520833333,-0.01074960548
0.04522916667,-0.01086852234
0.04525,-0.01101841591
0.04527083333,-0.01108339801
0.04529166667,-0.01123792864
0.0453125,-0.01131413877
0.04533333333,-0.01137160696
0.04535416667,-0.01147048827
0.045375,-0.01152123976
0.04539583333,-0.01155096572
0.04541666667,-0.01157412585
0.0454375,-0.01159968134
0.04545833333,-0.01162811182
0.04547916667,-0.01170935016
0.0455,-0.01174613927
0.04552083333,-0.01169860177
0.04554166667,-0.01167392731
0.0455625,-0.01157910284
0.04558333333,-0.01153378375
0.04560416667,-0.01146505028
0.045625,-0.0114052007
0.04564583333,-0.01135468949
0.04566666667,-0.0113374535
0.0456875,-0.01129674818
0.04570833333,-0.01125475485
0.04572916667,-0.01125344168
0.04575,-0.01122240815
0.04577083333,-0.01119759493
0.04579166667,-0.01116523053
0.0458125,-0.01108554192
0.04583333333,-0.01105242223
0.04585416667,-0.01100492757
0.045875,-0.01100492198
0.04589583333,-0.01094837394
0.04591666667,-0.01084753498
0.0459375,-0.01073653996
0.04595833333,-0.01066996157
0.04597916667,-0.01059335377
0.046,-0.01052570436
0.04602083333,-0.01042555086
0.04604166667,-0.01032366045
0.0460625,-0.01022789907
0.04608333333,-0.01013999432
0.04610416667,-0.01007666253
0.046125,-0.01007784624
0.04614583333,-0.01004886441
0.04616666667,-0.009934789501
0.0461875,-0.009829216637
0.04620833333,-0.009732883424
0.04622916667,-0.009647518396
0.04625,-0.00961698778
0.04627083333,-0.009644510224
0.04629166667,-0.00969818607
0.0463125,-0.009781911038
0.04633333333,-0.009864242747
0.04635416667,-0.009987205267
0.046375,-0.01015801076
0.04639583333,-0.01038120221
0.04641666667,-0.01057199202
0.0464375,-0.01075426582
0.04645833333,-0.01094855461
0.04647916667,-0.01106934063
0.0465,-0.01120018773
0.04652083333,-0.01124658901
0.04654166667,-0.01128138043
0.0465625,-0.01128298976
0.04658333333,-0.01125580445
0.04660416667,-0.01131421793
0.046625,-0.01139722764
0.04664583333,-0.0115050748
0.04666666667,-0.01164369844
0.0466875,-0.01169366203
0.04670833333,-0.01176911592
0.04672916667,-0.01179631148
0.04675,-0.01182686072
0.04677083333,-0.01189172454
0.04679166667,-0.01189494319
0.0468125,-0.01187148876
0.04683333333,-0.01180496812
0.04685416667,-0.01170873456
0.046875,-0.01168545149
0.04689583333,-0.01166304946
0.04691666667,-0.01162691414
0.0469375,-0.01161832362
0.04695833333,-0.01164257992
0.04697916667,-0.01166654285
0.047,-0.01166407205
0.04702083333,-0.01169397496
0.04704166667,-0.01173126977
0.0470625,-0.01169328205
0.04708333333,-0.01169735938
0.04710416667,-0.01166733727
0.047125,-0.01167840231
0.04714583333,-0.0116537353
0.04716666667,-0.0115690548
0.0471875,-0.01149191801
0.04720833333,-0.01138697285
0.04722916667,-0.01131810714
0.04725,-0.01126989163
0.04727083333,-0.01121992432
0.04729166667,-0.01121442858
0.0473125,-0.01113899052
0.04733333333,-0.01104850695
0.04735416667,-0.0109978104
0.047375,-0.01091327518
0.04739583333,-0.01081916317
0.04741666667,-0.01075539459
0.0474375,-0.01058138907
0.04745833333,-0.01045315806
0.04747916667,-0.01030211896
0.0475,-0.01016043779
0.04752083333,-0.01002349239
0.04754166667,-0.009837737307
0.0475625,-0.009644234553
0.04758333333,-0.009412067011
0.04760416667,-0.009230689146
0.047625,-0.00909765996
0.04764583333,-0.008924405091
0.04766666667,-0.008745610714
0.0476875,-0.008593914099
0.04770833333,-0.008508147672
0.04772916667,-0.008415769786
0.04775,-0.008307423443
0.04777083333,-0.008200366981
0.04779166667,-0.008130199276
0.0478125,-0.007999924943
0.04783333333,-0.007871891372
0.04785416667,-0.007786561269
0.047875,-0.007711034268
0.04789583333,-0.00768094603
0.04791666667,-0.007671347354
0.0479375,-0.007636299822
0.04795833333,-0.007574286778
0.04797916667,-0.007564752363
0.048,-0.007540920284
0.04802083333,-0.007509741001
0.04804166667,-0.007501055021
0.0480625,-0.007506984286
0.04808333333,-0.007469864562
0.04810416667,-0.007439397275
0.048125,-0.007397134788
0.04814583333,-0.00728913676
0.04816666667,-0.007183389738
0.0481875,-0.007018805016
0.04820833333,-0.006764490157
0.04822916667,-0.00655872561
0.04825,-0.006331793964
0.04827083333,-0.006165960804
0.04829166667,-0.005988154095
0.0483125,-0.005780941341
0.04833333333,-0.005669112317
0.04835416667,-0.005478175823
0.048375,-0.00535029592
0.04839583333,-0.005200494081
0.04841666667,-0.005026882514
0.0484375,-0.004886563867
0.04845833333,-0.004715497606
0.04847916667,-0.004533290863
0.0485,-0.004311142489
0.04852083333,-0.004133079201
0.04854166667,-0.004066668451
0.0485625,-0.003981545568
0.04858333333,-0.003927191719
0.04860416667,-0.003869438544
0.048625,-0.003912051208
0.04864583333,-0.003912957385
0.04866666667,-0.00391140487
0.0486875,-0.003869343549
0.04870833333,-0.003853458213
0.04872916667,-0.003787647001
0.04875,-0.003665296361
0.04877083333,-0.003501879284
0.04879166667,-0.003364911536
0.0488125,-0.00327634695
0.04883333333,-0.00320179807
0.04885416667,-0.003115966916
0.048875,-0.003019668162
0.04889583333,-0.002932330361
0.04891666667,-0.002862993628
0.0489375,-0.002689663554
0.04895833333,-0.002578250598
0.04897916667,-0.002411717083
0.049,-0.002356756246
0.04902083333,-0.002248458331
0.04904166667,-0.002091853181
0.0490625,-0.00188008626
0.04908333333,-0.00167686143
0.04910416667,-0.001561066252
0.049125,-0.00137249101
0.04914583333,-0.001263255021
0.04916666667,-0.001139268512
0.0491875,-0.0009985477664
0.04920833333,-0.0009500963497
0.04922916667,-0.0007938816561
0.04925,-0.0006809688639
0.04927083333,-0.0005350070423
0.04929166667,-0.0003970574471
0.0493125,-0.0003047474311
0.04933333333,-0.0001283389283
0.04935416667,6.056320854e-05
0.049375,0.0001876209863
0.04939583333,0.00027141592
0.04941666667,0.0002763615921
0.0494375,0.0003597323084
0.04945833333,0.0004534575855
0.04947916667,0.0005598169519
0.0495,0.0006785113364
0.04952083333,0.0007436813321
0.04954166667,0.000761740841
0.0495625,0.0007778241998
0.04958333333,0.0008326864336
0.04960416667,0.0008961436106
0.049625,0.000951028429
0.04964583333,0.001050312771
0.04966666667,0.001097686938
0.0496875,0.001185901114
0.04970833333,0.00123666483
0.04972916667,0.001383498195
0.04975,0.001538497745
0.04977083333,0.001711879973
0.04979166667,0.001826713677
0.0498125,0.001907266211
0.04983333333,0.002055417746
0.04985416667,0.002226465847
0.049875,0.002445751103
0.04989583333,0.002686655149
0.04991666667,0.002884249669
0.0499375,0.003080572933
0.04995833333,0.003292677924
0.04997916667,0.003448450938
0.05,0.003672931809
0.05002083333,0.003888188396
0.05004166667,0.004068936687
0.0500625,0.004275268875
0.05008333333,0.004415301606
0.05010416667,0.004579886328
0.050125,0.004708041903
0.05014583333,0.004796369467
0.05016666667,0.004851658363
0.0501875,0.004875234794
0.05020833333,0.00492235925
0.05022916667,0.005012562033
0.05025,0.0051504476
0.05027083333,0.005336803384
0.05029166667,0.005523912143
0.0503125,0.005720866844
0.05033333333,0.005852783099
0.05035416667,0.00595763512
0.050375,0.00607815804
0.05039583333,0.006276773755
0.05041666667,0.006438799202
0.0504375,0.006670983043
0.05045833333,0.006925644819
0.05047916667,0.007163874805
0.0505,0.007345261518
0.05052083333,0.007539302111
0.05054166667,0.007699063513
0.0505625,0.007831786759
0.05058333333,0.007930465974
0.05060416667,0.008015258238
0.050625,0.00812501926
0.05064583333,0.008257823065
0.05066666667,0.008445227519
0.0506875,0.008603897877
0.05070833333,0.008748050779
0.05072916667,0.008882864378
0.05075,0.008930192329
0.05077083333,0.009080212563
0.05079166667,0.009635351598
0.0508125,0.01035590749
0.05083333333,0.01099620201
0.05085416667,0.01150576025
0.050875,0.01191933732
0.05089583333,0.0122618489
0.05091666667,0.01253162324
0.0509375,0.01273576356
0.05095833333,0.0128529463
0.05097916667,0.01290872879
0.051,0.01289629191
0.05102083333,0.01288926601
0.05104166667,0.01284175087
0.0510625,0.01278832648
0.05108333333,0.01274276897
0.05110416667,0.012714752
0.051125,0.01267647091
0.05114583333,0.0126598319
0.05116666667,0.01264908444
0.0511875,0.01261183992
0.05120833333,0.01263303217
0.05122916667,0.01261504833
0.05125,0.01254508179
0.05127083333,0.01248381101
0.05129166667,0.01236741431
0.0513125,0.01227215212
0.05133333333,0.01216103695
0.05135416667,0.01207085885
0.051375,0.01198422257
0.05139583333,0.01187242661
0.05141666667,0.01180041954
0.0514375,0.01171200443
0.05145833333,0.0116548324
0.05147916667,0.01161247492
0.0515,0.01162016951
0.05152083333,0.01163209416
0.05154166667,0.01161956787
0.0515625,0.01163807977
0.05158333333,0.01162415091
0.05160416667,0.0115882922
0.051625,0.01154272631
0.05164583333,0.01144460868
0.05166666667,0.0113766836
0.0516875,0.01134549733
0.05170833333,0.01133557595
0.05172916667,0.0112898564
0.05175,0.01118866727
0.05177083333,0.01109489985
0.05179166667,0.01099868678
0.0518125,0.01091969199
0.05183333333,0.01087710261
0.05185416667,0.01083451323
0.051875,0.01074148249
0.05189583333,0.01064079534
0.05191666667,0.01053273119
0.0519375,0.01045413036
0.05195833333,0.01043588389
0.05197916667,0.0104085058
0.052,0.01036149263
0.05202083333,0.01031899825
0.05204166667,0.01029223483
0.0520625,0.01036826801
0.05208333333,0.01054349914
0.05210416667,0.01072964538
0.052125,0.01092587225
0.05214583333,0.01109869685
0.05216666667,0.01130930055
0.0521875,0.01149026304
0.05220833333,0.01162912976
0.05222916667,0.01183020882
0.05225,0.01201634482
0.05227083333,0.0121442005
0.05229166667,0.01226713322
0.0523125,0.01241728105
0.05233333333,0.01253952831
0.05235416667,0.0127293244
0.052375,0.01286470238
0.05239583333,0.01300228015
0.05241666667,0.01316748373
0.0524375,0.01333143376
0.05245833333,0.01349014416
0.05247916667,0.0136614684
0.0525,0.0137613751
0.05252083333,0.01390031911
0.05254166667,0.01398699824
0.0525625,0.01408680994
0.05258333333,0.01413871814
0.05260416667,0.01415377669
0.052625,0.01419206522
0.05264583333,0.01421281323
0.05266666667,0.01422310341
0.0526875,0.01431557257
0.05270833333,0.0144177489
0.05272916667,0.01455596369
0.05275,0.01470246725
0.05277083333,0.01482746378
0.05279166667,0.01499192044
0.0528125,0.01514042169
0.05283333333,0.01530161873
0.05285416667,0.01545791421
0.052875,0.01565310173
0.05289583333,0.01581598632
0.05291666667,0.01598912664
0.0529375,0.01620245166
0.05295833333,0.01638713479
0.05297916667,0.01655607857
0.053,0.01673153974
0.05302083333,0.01691457815
0.05304166667,0.01702170447
0.0530625,0.01713459566
0.05308333333,0.01716666482
0.05310416667,0.01716986671
0.053125,0.01717658341
0.05314583333,0.01713780127
0.05316666667,0.0171207916
0.0531875,0.01711149327
0.05320833333,0.01712920144
0.05322916667,0.01714084484
0.05325,0.01713073067
0.05327083333,0.01714042574
0.05329166667,0.01714669727
0.0533125,0.01710226387
0.05333333333,0.01700236648
0.05335416667,0.01690261066
0.053375,0.01680937968
0.05339583333,0.01675197296
0.05341666667,0.01669671759
0.0534375,0.01662852056
0.05345833333,0.0165934898
0.05347916667,0.01658657193
0.0535,0.01656874642
0.05352083333,0.01653260738
0.05354166667,0.01651139744
0.0535625,0.0164990779
0.05358333333,0.01648087241
0.05360416667,0.01649423502
0.053625,0.01649056748
0.05364583333,0.01649709046
0.05366666667,0.01649488695
0.0536875,0.01651190035
0.05370833333,0.01654881611
0.05372916667,0.01658133231
0.05375,0.01661104709
0.05377083333,0.01664026268
0.05379166667,0.01662589423
0.0538125,0.01662923954
0.05383333333,0.01662555896
0.05385416667,0.01662271097
0.053875,0.01663954183
0.05389583333,0.01663187891
0.05391666667,0.01662855223
0.0539375,0.01660555974
0.05395833333,0.01659335196
0.05397916667,0.01658186875
0.054,0.01657934673
0.05402083333,0.01659662277
0.05404166667,0.0165924523
0.0540625,0.01662628353
0.05408333333,0.01660344936
0.05410416667,0.01654229686
0.054125,0.01647642814
0.05414583333,0.01640721224
0.05416666667,0.01636778377
0.0541875,0.01631938852
0.05420833333,0.01625058986
0.05422916667,0.01620519161
0.05425,0.01614799351
0.05427083333,0.01611960866
0.05429166667,0.01610983722
0.0543125,0.01611201838
0.05433333333,0.01611727104
0.05435416667,0.01613174565
0.054375,0.01614867523
0.05439583333,0.01616240107
0.05441666667,0.01616119966
0.0544375,0.01618055068
0.05445833333,0.01619495079
0.05447916667,0.01622059569
0.0545,0.01628172211
0.05452083333,0.01630176231
0.05454166667,0.01632825844
0.0545625,0.01634392329
0.05458333333,0.01635733619
0.05460416667,0.01640362106
0.054625,0.01644117385
0.05464583333,0.01646529138
0.05466666667,0.01647842675
0.0546875,0.01644575968
0.05470833333,0.01640592329
0.05472916667,0.01637430303
0.05475,0.01634993963
0.05477083333,0.01629414782
0.05479166667,0.01623957977
0.0548125,0.01617605612
0.05483333333,0.01610969193
0.05485416667,0.01608157344
0.054875,0.01602706686
0.05489583333,0.0160207618
0.05491666667,0.01598493941
0.0549375,0.01593939774
0.05495833333,0.01588031091
0.05497916667,0.0158427041
0.055,0.01585773006
0.05502083333,0.01591931283
0.05504166667,0.01598803326
0.0550625,0.01600625925
0.05508333333,0.01598098874
0.05510416667,0.01594086364
0.055125,0.01591381244
0.05514583333,0.01593834162
0.05516666667,0.01604494452
0.0551875,0.0161848627
0.05520833333,0.01631683856
0.05522916667,0.01644153148
0.05525,0.01657078229
0.05527083333,0.01671624556
0.05529166667,0.0168852713
0.0553125,0.01708222926
0.05533333333,0.01730762981
0.05535416667,0.01751062647
0.055375,0.01766002551
0.05539583333,0.01777373813
0.05541666667,0.01785634272
0.0554375,0.01799299195
0.05545833333,0.01809265092
0.05547916667,0.01816906594
0.0555,0.0181990657
0.05552083333,0.01818636246
0.05554166667,0.01815793477
0.0555625,0.01813698187
0.05558333333,0.01812388748
0.05560416667,0.0180844143
0.055625,0.01802827045
0.05564583333,0.01795739308
0.05566666667,0.01787139848
0.0556875,0.01773954928
0.05570833333,0.0175837893
0.05572916667,0.01742333174
0.05575,0.01724803634
0.05577083333,0.01708680391
0.05579166667,0.01691733859
0.0558125,0.01676453277
0.05583333333,0.01661926694
0.05585416667,0.01645131409
0.055875,0.0162994042
0.05589583333,0.01615955308
0.05591666667,0.01602789946
0.0559375,0.01591802202
0.05595833333,0.01578894444
0.05597916667,0.0156484507
0.056,0.0155416755
0.05602083333,0.01544574089
0.05604166667,0.01535802986
0.0560625,0.01529670134
0.05608333333,0.015251996
0.05610416667,0.01522093546
0.056125,0.01519612316
0.05614583333,0.01516844239
0.05616666667,0.01514398865
0.0561875,0.01512668282
0.05620833333,0.01512824092
0.05622916667,0.0151439216
0.05625,0.01517306827
0.05627083333,0.01521521062
0.05629166667,0.01523724571
0.0563125,0.01528538577
0.05633333333,0.01533160545
0.05635416667,0.01539156213
0.056375,0.01544844545
0.05639583333,0.01552466862
0.05641666667,0.01559698675
0.0564375,0.01563921943
0.05645833333,0.01570022665
0.05647916667,0.01573473588
0.0565,0.01577039994
0.05652083333,0.01579292864
0.05654166667,0.01578657702
0.0565625,0.0157719627
0.05658333333,0.01574532129
0.05660416667,0.01573093981
0.056625,0.01571704075
0.05664583333,0.0157034602
0.05666666667,0.01569026895
0.0566875,0.01565247029
0.05670833333,0.01559122931
0.05672916667,0.01548706461
0.05675,0.01537718344
0.05677083333,0.01525782328
0.05679166667,0.01514724549
0.0568125,0.01501828991
0.05683333333,0.01488839835
0.05685416667,0.01476615295
0.056875,0.01462450158
0.05689583333,0.01449623425
0.05691666667,0.0143466061
0.0569375,0.01420674566
0.05695833333,0.0140708629
0.05697916667,0.0139237605
0.057,0.01379693858
0.05702083333,0.01363828592
0.05704166667,0.0134774968
0.0570625,0.01332292054
0.05708333333,0.01319554821
0.05710416667,0.01309065986
0.057125,0.01299422607
0.05714583333,0.01290062349
0.05716666667,0.01280986238
0.0571875,0.01270566881
0.05720833333,0.01259203069
0.05722916667,0.01248292159
0.05725,0.01236515399
0.05727083333,0.01227394678
0.05729166667,0.01218042336
0.0573125,0.01208724827
0.05733333333,0.01197667979
0.05735416667,0.01188096963
0.057375,0.01180683263
0.05739583333,0.01171826664
0.05741666667,0.0116300527
0.0574375,0.01154323854
0.05745833333,0.01146872249
0.05747916667,0.01141766366
0.0575,0.01137240138
0.05752083333,0.01130914874
0.05754166667,0.01123325527
0.0575625,0.01116642635
0.05758333333,0.01110925246
0.05760416667,0.01103507821
0.057625,0.0109351771
0.05764583333,0.01084772684
0.05766666667,0.01075033564
0.0576875,0.01065569557
0.05770833333,0.01058538258
0.05772916667,0.01051677205
0.05775,0.01044431794
0.05777083333,0.01035888866
0.05779166667,0.01025053672
0.0578125,0.01014800183
0.05783333333,0.01002423558
0.05785416667,0.009916919284
0.057875,0.009796037339
0.05789583333,0.009673918597
0.05791666667,0.009526478127
0.0579375,0.009345027618
0.05795833333,0.009124794975
0.05797916667,0.008891629055
0.058,0.008674122393
0.05802083333,0.008459830657
0.05804166667,0.008257219568
0.0580625,0.008029228076
0.05808333333,0.007794812787
0.05810416667,0.00752344681
0.058125,0.007246080786
0.05814583333,0.006970744114
0.05816666667,0.006715833209
0.0581875,0.006468761712
0.05820833333,0.006223968696
0.05822916667,0.006009986624
0.05825,0.00580929406
0.05827083333,0.005625132471
0.05829166667,0.005438886583
0.0583125,0.005285345949
0.05833333333,0.00514222309
0.05835416667,0.005011609755
0.058375,0.004915918689
0.05839583333,0.004836042412
0.05841666667,0.004754188005
0.0584375,0.004688451532
0.05845833333,0.004625420086
0.05847916667,0.004577358719
0.0585,0.004545809701
0.05852083333,0.004532839172
0.05854166667,0.004530400503
0.0585625,0.004524670541
0.05858333333,0.00449944241
0.05860416667,0.004478660412
0.058625,0.004470162094
0.05864583333,0.004463315941
0.05866666667,0.004446351901
0.0586875,0.004405504093
0.05870833333,0.004343787208
0.05872916667,0.004238136113
0.05875,0.004130693618
0.05877083333,0.004022699781
0.05879166667,0.003916772082
0.0588125,0.003807204077
0.05883333333,0.003685529344
0.05885416667,0.003563153325
0.058875,0.00340187992
0.05889583333,0.003245887347
0.05891666667,0.003089972306
0.0589375,0.002916932106
0.05895833333,0.002731803339
0.05897916667,0.002531707752
0.059,0.002337234095
0.05902083333,0.002151164925
0.05904166667,0.001962462207
0.0590625,0.001798722427
0.05908333333,0.001643617055
0.05910416667,0.001509183203
0.059125,0.001381392358
0.05914583333,0.001254664268
0.05916666667,0.001116457512
0.0591875,0.0009826121386
0.05920833333,0.0008315122686
0.05922916667,0.0007052528672
0.05925,0.0005596978008
0.05927083333,0.000401182333
0.05929166667,0.000250239158
0.0593125,7.372349501e-05
0.05933333333,-9.922031313e-05
0.05935416667,-0.000284064794
0.059375,-0.0004548686557
0.05939583333,-0.0005981435534
0.05941666667,-0.0007302848389
0.0594375,-0.0008576496039
0.05945833333,-0.0009781459812
0.05947916667,-0.001085643889
0.0595,-0.001188750379
0.05952083333,-0.001297321171
0.05954166667,-0.001398221357
0.0595625,-0.001493648859
0.05958333333,-0.001591508975
0.05960416667,-0.001646187971
0.059625,-0.001709921053
0.05964583333,-0.001737738494
0.05966666667,-0.001774249715
0.0596875,-0.001846926403
0.05970833333,-0.001891947002
0.05972916667,-0.001905315323
0.05975,-0.001875669928
0.05977083333,-0.00181413372
0.05979166667,-0.001754519297
0.0598125,-0.001703435322
0.05983333333,-0.001668586046
0.05985416667,-0.001631927444
0.059875,-0.001578039606
0.05989583333,-0.001536377356
0.05991666667,-0.001488693757
0.0599375,-0.001506812521
0.05995833333,-0.001590862405
0.05997916667,-0.001692084363
0.06,-0.001790206297
0.06002083333,-0.00186519837
0.06004166667,-0.001916619833
0.0600625,-0.001977948239
0.06008333333,-0.00210417714
0.06010416667,-0.002258463763
0.060125,-0.002419724828
0.06014583333,-0.002542985836
0.06016666667,-0.002618344966
0.0601875,-0.002687211148
0.06020833333,-0.002733472968
0.06022916667,-0.002797213849
0.06025,-0.00288994587
0.06027083333,-0.002956475364
0.06029166667,-0.002957562217
0.0603125,-0.002921387786
0.06033333333,-0.002887669951
0.06035416667,-0.002899824874
0.060375,-0.002913287142
0.06039583333,-0.002874211175
0.06041666667,-0.002652294235
0.0604375,-0.002296778839
0.06045833333,-0.001931898179
0.06047916667,-0.001635502675
0.0605,-0.001404332463
0.06052083333,-0.001194382668
0.06054166667,-0.0009822192369
0.0605625,-0.0006665576948
0.06058333333,-0.0002416046482
0.06060416667,0.0002397644857
0.060625,0.0007261008723
0.06064583333,0.001120657893
0.06066666667,0.001376476488
0.0606875,0.001510075061
0.06070833333,0.001562149031
0.06072916667,0.001562752645
0.06075,0.001525555737
0.06077083333,0.001458571409
0.06079166667,0.001341053168
0.0608125,0.001158188446
0.06083333333,0.0009154296713
0.06085416667,0.0006159049226
0.060875,0.0002856550273
0.06089583333,-4.823255222e-05
0.06091666667,-0.000379346835
0.0609375,-0.0007115818444
0.06095833333,-0.001065554796
0.06097916667,-0.001462878077
0.061,-0.001847351086
0.06102083333,-0.002192617161
0.06104166667,-0.002529056044
0.0610625,-0.002824764466
0.06108333333,-0.003109186189
0.06110416667,-0.00342702819
0.061125,-0.003733807476
0.06114583333,-0.004008363001
0.06116666667,-0.004201865289
0.0611875,-0.004272838123
0.06120833333,-0.004265945405
0.06122916667,-0.004231054336
0.06125,-0.004166461527
0.06127083333,-0.004068535287
0.06129166667,-0.00398151949
0.0613125,-0.00391790783
0.06133333333,-0.003835685318
0.06135416667,-0.003764761845
0.061375,-0.003722707741
0.06139583333,-0.003720724257
0.06141666667,-0.003753165947
0.0614375,-0.003809330054
0.06145833333,-0.003887477331
0.06147916667,-0.004003508948
0.0615,-0.004147262312
0.06152083333,-0.004311888944
0.06154166667,-0.004503870849
0.0615625,-0.004714563955
0.06158333333,-0.004988127854
0.06160416667,-0.005311526824
0.061625,-0.005653170869
0.06164583333,-0.005996085238
0.06166666667,-0.006334497128
0.0616875,-0.006674344186
0.06170833333,-0.007020168472
0.06172916667,-0.007359293755
0.06175,-0.00765462406
0.06177083333,-0.00784351863
0.06179166667,-0.007898623124
0.0618125,-0.007832557894
0.06183333333,-0.007622757461
0.06185416667,-0.007373841479
0.061875,-0.007093290798
0.06189583333,-0.006764672231
0.06191666667,-0.006366571877
0.0619375,-0.005784770939
0.06195833333,-0.005103063304
0.06197916667,-0.004457489122
0.062,-0.003838883247
0.06202083333,-0.003279471304
0.06204166667,-0.002583692083
0.0620625,-0.001657010755
0.06208333333,-0.0005800649524
0.06210416667,0.0005570411449
0.062125,0.001725647948
0.06214583333,0.002853919286
0.06216666667,0.003868212923
0.0621875,0.004765221849
0.06220833333,0.005524600856
0.06222916667,0.006125643849
0.06225,0.006513396278
0.06227083333,0.006744706538
0.06229166667,0.006826882716
0.0623125,0.006766774692
0.06233333333,0.006619801745
0.06235416667,0.006343902554
0.062375,0.005961376242
0.06239583333,0.005466193892
0.06241666667,0.004876563791
0.0624375,0.004229622427
0.06245833333,0.003523152322
0.06247916667,0.002772229724
0.0625,0.001970519777
0.06252083333,0.0011018035
0.06254166667,0.0001909236307
0.0625625,-0.0007538928185
0.06258333333,-0.001721770968
0.06260416667,-0.002688300796
0.062625,-0.003670106409
0.06264583333,-0.004633097444
0.06266666667,-0.005562403705
0.0626875,-0.006415352225
0.06270833333,-0.007195378654
0.06272916667,-0.007929176092
0.06275,-0.008611277677
0.06277083333,-0.009283566847
0.06279166667,-0.00991233252
0.0628125,-0.01048141252
0.06283333333,-0.01098416839
0.06285416667,-0.01143100765
0.062875,-0.01185278781
0.06289583333,-0.01224140171
0.06291666667,-0.01262585074
0.0629375,-0.01296884567
0.06295833333,-0.01327835955
0.06297916667,-0.01355936285
0.063,-0.01380734704
0.06302083333,-0.0140438322
0.06304166667,-0.01428538561
0.0630625,-0.014525651
0.06308333333,-0.01474828925
0.06310416667,-0.01495534182
0.063125,-0.0151295308
0.06314583333,-0.01529422496
0.06316666667,-0.0154324621
0.0631875,-0.01555925515
0.06320833333,-0.01567189023
0.06322916667,-0.01574328542
0.06325,-0.01581450924
0.06327083333,-0.01587249152
0.06329166667,-0.01592634805
0.0633125,-0.01596927084
0.06333333333,-0.01597305387
0.06335416667,-0.01595354266
0.063375,-0.0159188062
0.06339583333,-0.01588255726
0.06341666667,-0.01584644057
0.0634375,-0.01580858417
0.06345833333,-0.01577885635
0.06347916667,-0.01573189721
0.0635,-0.01567510515
0.06352083333,-0.01561437827
0.06354166667,-0.01555936038
0.0635625,-0.01553238556
0.06358333333,-0.01550466847
0.06360416667,-0.01546682231
0.063625,-0.01541971322
0.06364583333,-0.01539021358
0.06366666667,-0.01539057679
0.0636875,-0.01541533787
0.06370833333,-0.01542984881
0.06372916667,-0.01544914208
0.06375,-0.01546974014
0.06377083333,-0.01549511775
0.06379166667,-0.01554625202
0.0638125,-0.01561624091
0.06383333333,-0.01569413394
0.06385416667,-0.01576471142
0.063875,-0.01580892503
0.06389583333,-0.01585088111
0.06391666667,-0.01590314135
0.0639375,-0.01597150788
0.06395833333,-0.01604095101
0.06397916667,-0.01609533466
0.064,-0.01612967066
0.06402083333,-0.01613330655
0.06404166667,-0.01613889821
0.0640625,-0.01616139337
0.06408333333,-0.01619942114
0.06410416667,-0.01624348387
0.064125,-0.01626139134
0.06414583333,-0.01627242938
0.06416666667,-0.01628963836
0.0641875,-0.01630507037
0.06420833333,-0.01633046009
0.06422916667,-0.01634880528
0.06425,-0.01637298241
0.06427083333,-0.0164013505
0.06429166667,-0.01646084338
0.0643125,-0.01653843187
0.06433333333,-0.01663556509
0.06435416667,-0.01675046608
0.064375,-0.01686082967
0.06439583333,-0.01697136462
0.06441666667,-0.01707771048
0.0644375,-0.01718258113
0.06445833333,-0.01730212942
0.06447916667,-0.01742212661
0.0645,-0.01750826091
0.06452083333,-0.01757354662
0.06454166667,-0.01764731482
0.0645625,-0.01772177592
0.06458333333,-0.01778878085
0.06460416667,-0.01786347106
0.064625,-0.01793383621
0.06464583333,-0.0179918427
0.06466666667,-0.01801978797
0.0646875,-0.01803672314
0.06470833333,-0.01805687696
0.06472916667,-0.01808988303
0.06475,-0.01812550239
0.06477083333,-0.01813113503
0.06479166667,-0.01811627299
0.0648125,-0.01808713377
0.06483333333,-0.0180474706
0.06485416667,-0.01800444163
0.064875,-0.0179594513
0.06489583333,-0.01793220453
0.06491666667,-0.0179018639
0.0649375,-0.01789128594
0.06495833333,-0.01789356209
0.06497916667,-0.01791033894
0.065,-0.01794572733
0.06502083333,-0.01798446104
0.06504166667,-0.01801956631
0.0650625,-0.01808610931
0.06508333333,-0.01817092113
0.06510416667,-0.0182693731
0.065125,-0.01837519556
0.06514583333,-0.01847149432
0.06516666667,-0.01858387701
0.0651875,-0.01870466396
0.06520833333,-0.01881342009
0.06522916667,-0.01891843788
0.06525,-0.01901961118
0.06527083333,-0.01911537722
0.06529166667,-0.01921548322
0.0653125,-0.01932489499
0.06533333333,-0.01942626759
0.06535416667,-0.01952534728
0.065375,-0.01962018944
0.06539583333,-0.01971491426
0.06541666667,-0.01978445612
0.0654375,-0.01981257647
0.06545833333,-0.01981204748
0.06547916667,-0.01980171911
0.0655,-0.01979286596
0.06552083333,-0.01977718994
0.06554166667,-0.01975590177
0.0655625,-0.01972777955
0.06558333333,-0.01968085021
0.06560416667,-0.01960774511
0.065625,-0.01951256953
0.06564583333,-0.01940840483
0.06566666667,-0.01930411346
0.0656875,-0.01920193061
0.06570833333,-0.01909091137
0.06572916667,-0.01895547286
0.06575,-0.01882714592
0.06577083333,-0.01869221777
0.06579166667,-0.01855992526
0.0658125,-0.01843240112
0.06583333333,-0.01829146594
0.06585416667,-0.01815422066
0.065875,-0.01802033745
0.06589583333,-0.01788770966
0.06591666667,-0.01777708717
0.0659375,-0.01767132618
0.06595833333,-0.01757142134
0.06597916667,-0.01746282727
0.066,-0.01736208424
0.06602083333,-0.0172848925
0.06604166667,-0.0172124207
0.0660625,-0.01715782471
0.06608333333,-0.01712807827
0.06610416667,-0.01711586304
0.066125,-0.0171208214
0.06614583333,-0.01710968092
0.06616666667,-0.01710595749
0.0661875,-0.01710182428
0.06620833333,-0.01707636937
0.06622916667,-0.0170510374
0.06625,-0.01705401763
0.06627083333,-0.01707780175
0.06629166667,-0.01709867828
0.0663125,-0.01710758545
0.06633333333,-0.01713219285
0.06635416667,-0.0171687007
0.066375,-0.01721487753
0.06639583333,-0.01728289947
0.06641666667,-0.01734221913
0.0664375,-0.01736899093
0.06645833333,-0.01738314889
0.06647916667,-0.01738413423
0.0665,-0.01738452539
0.06652083333,-0.01737378165
0.06654166667,-0.01735825278
0.0665625,-0.01733566634
0.06658333333,-0.01728078909
0.06660416667,-0.01719839498
0.066625,-0.01708845422
0.06664583333,-0.016987212
0.06666666667,-0.01689457707
0.0666875,-0.0168106053
0.06670833333,-0.01673266292
0.06672916667,-0.01664429344
0.06675,-0.01654834114
0.06677083333,-0.0164286308
0.06679166667,-0.01630918868
0.0668125,-0.01619292051
0.06683333333,-0.01607038826
0.06685416667,-0.01594450511
0.066875,-0.01580255665
0.06689583333,-0.01566525921
0.06691666667,-0.01552401856
0.0669375,-0.01536383294
0.06695833333,-0.01520624943
0.06697916667,-0.01504986826
0.067,-0.01491814852
0.06702083333,-0.01480884757
0.06704166667,-0.01471586619
0.0670625,-0.01462528948
0.06708333333,-0.01453768555
0.06710416667,-0.01447448321
0.067125,-0.01441864949
0.06714583333,-0.01436664909
0.06716666667,-0.01430290006
0.0671875,-0.01425005682
0.06720833333,-0.01421832666
0.06722916667,-0.01415693481
0.06725,-0.01409465447
0.06727083333,-0.01402527839
0.06729166667,-0.01394571643
0.0673125,-0.01388232037
0.06733333333,-0.01382158883
0.06735416667,-0.01377090253
0.067375,-0.01369758043
0.06739583333,-0.01363851503
0.06741666667,-0.01358294301
0.0674375,-0.01353702787
0.06745833333,-0.01348628849
0.06747916667,-0.01343115605
0.0675,-0.01337209903
0.06752083333,-0.01331600919
0.06754166667,-0.01326003671
0.0675625,-0.01319327764
0.06758333333,-0.01314224489
0.06760416667,-0.01305186842
0.067625,-0.01296663284
0.06764583333,-0.01287750434
0.06766666667,-0.01278883778
0.0676875,-0.01272161677
0.06770833333,-0.01266155299
0.06772916667,-0.01260738261
0.06775,-0.01253972203
0.06777083333,-0.01245789323
0.06779166667,-0.01236201171
0.0678125,-0.01226503775
0.06783333333,-0.01217613183
0.06785416667,-0.01206654124
0.067875,-0.01195595413
0.06789583333,-0.01180834137
0.06791666667,-0.0116485497
0.0679375,-0.01147570554
0.06795833333,-0.01129297074
0.06797916667,-0.01113899145
0.068,-0.01098829787
0.06802083333,-0.01082884427
0.06804166667,-0.01066557877
0.0680625,-0.01046356279
0.06808333333,-0.01024246495
0.06810416667,-0.01001569722
0.068125,-0.009798683226
0.06814583333,-0.009575258009
0.06816666667,-0.009356764145
0.0681875,-0.009147599339
0.06820833333,-0.008904713206
0.06822916667,-0.008684841916
0.06825,-0.008468305692
0.06827083333,-0.008263966069
0.06829166667,-0.008090302348
0.0683125,-0.007913442329
0.06833333333,-0.007780240383
0.06835416667,-0.007660593372
0.068375,-0.007547751535
0.06839583333,-0.007445964031
0.06841666667,-0.00735448394
0.0684375,-0.007250989322
0.06845833333,-0.007174951956
0.06847916667,-0.007099506445
0.0685,-0.007015281357
0.06852083333,-0.006922007073
0.06854166667,-0.006879038177
0.0685625,-0.006865247618
0.06858333333,-0.006854586769
0.06860416667,-0.006836879067
0.068625,-0.006793086417
0.06864583333,-0.006773694418
0.06866666667,-0.006752590649
0.0686875,-0.006754962262
0.06870833333,-0.006779773161
0.06872916667,-0.006772126537
0.06875,-0.006730939262
0.06877083333,-0.006625524722
0.06879166667,-0.00648251269
0.0688125,-0.006329982076
0.06883333333,-0.006162494887
0.06885416667,-0.006037123501
0.068875,-0.005889933556
0.06889583333,-0.005734966137
0.06891666667,-0.005549601279
0.0689375,-0.005340579432
0.06895833333,-0.005123835057
0.06897916667,-0.004916202743
0.069,-0.004721693229
0.06902083333,-0.004517764319
0.06904166667,-0.004308926873
0.0690625,-0.004087662324
0.06908333333,-0.00387411518
0.06910416667,-0.00368751632
0.069125,-0.003512614872
0.06914583333,-0.003338354174
0.06916666667,-0.003169017611
0.0691875,-0.003000364639
0.06920833333,-0.002848870587
0.06922916667,-0.002713577822
0.06925,-0.002608412178
0.06927083333,-0.002542843809
0.06929166667,-0.002467222046
0.0693125,-0.002420159522
0.06933333333,-0.002386995358
0.06935416667,-0.002390585374
0.069375,-0.002396707889
0.06939583333,-0.00238640816
0.06941666667,-0.002378831385
0.0694375,-0.002379477024
0.06945833333,-0.002381063299
0.06947916667,-0.002346033696
0.0695,-0.002305026865
0.06952083333,-0.002265720395
0.06954166667,-0.002205320634
0.0695625,-0.002146539744
0.06958333333,-0.002100805519
0.06960416667,-0.002053629374
0.069625,-0.001984942239
0.06964583333,-0.001889323583
0.06966666667,-0.001771902433
0.0696875,-0.001649216167
0.06970833333,-0.001530845417
0.06972916667,-0.001407258911
0.06975,-0.001285930863
0.06977083333,-0.001113693463
0.06979166667,-0.000902113039
0.0698125,-0.0006633778103
0.06983333333,-0.00041651231
0.06985416667,-0.0001891219872
0.069875,2.663582563e-05
0.06989583333,0.0002394702169
0.06991666667,0.0004535716143
0.0699375,0.0006777438102
0.06995833333,0.0009074701229
0.06997916667,0.001128961914
0.07,0.001354154316
0.07002083333,0.001573055168
0.07004166667,0.001804816187
0.0700625,0.002007884672
0.07008333333,0.002199260984
0.07010416667,0.002402619226
0.070125,0.002591830445
0.07014583333,0.002761757001
0.07016666667,0.002907076851
0.0701875,0.003079822753
0.07020833333,0.003256671596
0.07022916667,0.003412412014
0.07025,0.003563600127
0.07027083333,0.003727401141
0.07029166667,0.003903570585
0.0703125,0.004107469227
0.07033333333,0.004305485636
0.07035416667,0.004508833401
0.070375,0.00472714752
0.07039583333,0.00494477991
0.07041666667,0.005188796204
0.0704375,0.005400499795
0.07045833333,0.005606660619
0.07047916667,0.005834171083
0.0705,0.006116772536
0.07052083333,0.006410629023
0.07054166667,0.006655266508
0.0705625,0.006989542395
0.07058333333,0.007433600724
0.07060416667,0.007841604762
0.070625,0.008202604018
0.07064583333,0.008537488058
0.07066666667,0.008873146027
0.0706875,0.009209756739
0.07070833333,0.009561276995
0.07072916667,0.009881149977
0.07075,0.01013572142
0.07077083333,0.01034771465
0.07079166667,0.01052215975
0.0708125,0.01066954527
0.07083333333,0.0107869152
0.07085416667,0.01088061836
0.070875,0.01095736772
0.07089583333,0.01101271715
0.07091666667,0.01102718525
0.0709375,0.0110353576
0.07095833333,0.01106052753
0.07097916667,0.01103602163
0.071,0.01097474061
0.07102083333,0.0108985221
0.07104166667,0.01082426403
0.0710625,0.01075782534
0.07108333333,0.01069726609
0.07110416667,0.01063762419
0.071125,0.01058540959
0.07114583333,0.01053777989
0.07116666667,0.0104952883
0.0711875,0.01044749282
0.07120833333,0.01039824355
0.07122916667,0.01034265384
0.07125,0.01029028278
0.07127083333,0.01024788525
0.07129166667,0.01020129211
0.0713125,0.0101442514
0.07133333333,0.01008836366
0.07135416667,0.01006996166
0.071375,0.01004281361
0.07139583333,0.01002064534
0.07141666667,0.0100099938
0.0714375,0.01004589256
0.07145833333,0.0101195462
0.07147916667,0.01017763373
0.0715,0.01020524558
0.07152083333,0.01023758296
0.07154166667,0.01029145997
0.0715625,0.01036695112
0.07158333333,0.01046810392
0.07160416667,0.01055274438
0.071625,0.01063829754
0.07164583333,0.01072135754
0.07166666667,0.01079273596
0.0716875,0.01089403313
0.07170833333,0.01101629902
0.07172916667,0.01117797382
0.07175,0.01141914632
0.07177083333,0.0117391292
0.07179166667,0.01206213888
0.0718125,0.01233147271
0.07183333333,0.01254061703
0.07185416667,0.01271278877
0.071875,0.01287697814
0.07189583333,0.01299677417
0.07191666667,0.01310602203
0.0719375,0.01320919674
0.07195833333,0.01330413949
0.07197916667,0.01337850001
0.072,0.01342170406
0.07202083333,0.01344585419
0.07204166667,0.01344428957
0.0720625,0.01345936302
0.07208333333,0.01348733809
0.07210416667,0.01352509018
0.072125,0.01355536934
0.07214583333,0.0135482708
0.07216666667,0.01356672775
0.0721875,0.01358142123
0.07220833333,0.01362513378
0.07222916667,0.01365409419
0.07225,0.01367463917
0.07227083333,0.01372417342
0.07229166667,0.013784579
0.0723125,0.01384787913
0.07233333333,0.01392598078
0.07235416667,0.01400651969
0.072375,0.01407593861
0.07239583333,0.01416814607
0.07241666667,0.0142466221
0.0724375,0.01434969902
0.07245833333,0.01448837575
0.07247916667,0.01462292392
0.0725,0.01475550514
0.07252083333,0.0148822153
0.07254166667,0.01500090212
0.0725625,0.01513426658
0.07258333333,0.01527546812
0.07260416667,0.01547647361
0.072625,0.01567385346
0.07264583333,0.01583979093
0.07266666667,0.01601107605
0.0726875,0.01614568755
0.07270833333,0.01628337801
0.07272916667,0.01637545228
0.07275,0.01647961512
0.07277083333,0.01656909101
0.07279166667,0.01664080471
0.0728125,0.01672434993
0.07283333333,0.01679297164
0.07285416667,0.01689141244
0.072875,0.01698067784
0.07289583333,0.01706712507
0.07291666667,0.01716234721
0.0729375,0.0172358267
0.07295833333,0.01729066856
0.07297916667,0.0173173435
0.073,0.01733125746
0.07302083333,0.01731194369
0.07304166667,0.01727425493
0.0730625,0.01721454784
0.07308333333,0.01713976264
0.07310416667,0.01703272015
0.073125,0.01689148694
0.07314583333,0.01680444926
0.07316666667,0.0167204272
0.0731875,0.01663223282
0.07320833333,0.01656610146
0.07322916667,0.01649449207
0.07325,0.01641412824
0.07327083333,0.01631363481
0.07329166667,0.01622566767
0.0733125,0.01615833305
0.07333333333,0.01609949954
0.07335416667,0.01605852135
0.073375,0.01600053161
0.07339583333,0.01595761813
0.07341666667,0.01594561525
0.0734375,0.0159622319
0.07345833333,0.01602338441
0.07347916667,0.01607657596
0.0735,0.01613393798
0.07352083333,0.01616592519
0.07354166667,0.0162013527
0.0735625,0.01624893025
0.07358333333,0.01629072614
0.07360416667,0.01633551531
0.073625,0.01637561992
0.07364583333,0.01643132977
0.07366666667,0.01645084657
0.0736875,0.01647199504
0.07370833333,0.01647322811
0.07372916667,0.01646799222
0.07375,0.01647420973
0.07377083333,0.01646910794
0.07379166667,0.0165003892
0.0738125,0.01653208956
0.07383333333,0.01654942334
0.07385416667,0.01655404642
0.073875,0.01654818095
0.07389583333,0.01655371301
0.07391666667,0.01658915915
0.0739375,0.01660130173
0.07395833333,0.01660702564
0.07397916667,0.01659773476
0.074,0.01658684574
0.07402083333,0.01660343073
0.07404166667,0.01663658582
0.0740625,0.01667459309
0.07408333333,0.01672812738
0.07410416667,0.01679063775
0.074125,0.01682981476
0.07414583333,0.01686026342
0.07416666667,0.01688789204
0.0741875,0.01691824757
0.07420833333,0.01693585888
0.07422916667,0.01696089096
0.07425,0.01700410619
0.07427083333,0.01706832461
0.07429166667,0.01710584573
0.0743125,0.01712135412
0.07433333333,0.01714761741
0.07435416667,0.01715040766
0.074375,0.01714003272
0.07439583333,0.01713876612
0.07441666667,0.01714066602
0.0744375,0.01713820361
0.07445833333,0.01713210903
0.07447916667,0.01713071391
0.0745,0.01713950559
0.07452083333,0.01713413373
0.07454166667,0.01713496633
0.0745625,0.01714570075
0.07458333333,0.01713001169
0.07460416667,0.01709876023
0.074625,0.01703774184
0.07464583333,0.01699561439
0.07466666667,0.01698232815
0.0746875,0.01696824469
0.07470833333,0.01694398373
0.07472916667,0.01687021181
0.07475,0.01678683236
0.07477083333,0.01671322249
0.07479166667,0.01665071957
0.0748125,0.01661699824
0.07483333333,0.01658426039
0.07485416667,0.01655877754
0.074875,0.01654523797
0.07489583333,0.01653739996
0.07491666667,0.01653061807
0.0749375,0.01655481383
0.07495833333,0.01661075093
0.07497916667,0.01665071398
0.075,0.01670017093
0.07502083333,0.01673591882
0.07504166667,0.01677039079
0.0750625,0.01680771075
0.07508333333,0.01681629382
0.07510416667,0.01684991829
0.075125,0.01692493632
0.07514583333,0.01700226218
0.07516666667,0.01707367972
0.0751875,0.01710098609
0.07520833333,0.01713898592
0.07522916667,0.01719418727
0.07525,0.01724876091
0.07527083333,0.01731824316
0.07529166667,0.01737527177
0.0753125,0.01743976772
0.07533333333,0.01752255857
0.07535416667,0.01759550162
0.075375,0.01764541864
0.07539583333,0.01765987463
0.07541666667,0.01767284796
0.0754375,0.01769026741
0.07545833333,0.01770082489
0.07547916667,0.0177163817
0.0755,0.01774109155
0.07552083333,0.01774999127
0.07554166667,0.01774445362
0.0755625,0.01772960462
0.07558333333,0.01770603843
0.07560416667,0.01768494956
0.075625,0.0176583901
0.07564583333,0.01765149459
0.07566666667,0.01761239395
0.0756875,0.01755029708
0.07570833333,0.01749573648
0.07572916667,0.01742222905
0.07575,0.01733743586
0.07577083333,0.01726581529
0.07579166667,0.01717489213
0.0758125,0.01708257571
0.07583333333,0.01700272784
0.07585416667,0.01690339483
0.075875,0.01677619852
0.07589583333,0.01665830053
0.07591666667,0.01653775014
0.0759375,0.01640347764
0.07595833333,0.01625556126
0.07597916667,0.01607850008
0.076,0.01591324434
0.07602083333,0.01577508077
0.07604166667,0.01564654522
0.0760625,0.01554155163
0.07608333333,0.01543683931
0.07610416667,0.01534531265
0.076125,0.0152581865
0.07614583333,0.01518031769
0.07616666667,0.01514193974
0.0761875,0.01510314643
0.07620833333,0.01506293193
0.07622916667,0.01502543408
0.07625,0.01500297803
0.07627083333,0.01500300784
0.07629166667,0.01501789968
0.0763125,0.01501596626
0.07633333333,0.01502268948
0.07635416667,0.01505070738
0.076375,0.0150709236
0.07639583333,0.01512493845
0.07641666667,0.01520324312
0.0764375,0.01528725866
0.07645833333,0.01538717467
0.07647916667,0.01549373381
0.0765,0.01558285765
0.07652083333,0.0156710539
0.07654166667,0.01576243527
0.0765625,0.01585868374
0.07658333333,0.01594080031
0.07660416667,0.01605330594
0.076625,0.01614676043
0.07664583333,0.01622788794
0.07666666667,0.01629461162
0.0766875,0.01631313376
0.07670833333,0.0163013991
0.07672916667,0.01627958193
0.07675,0.01623207331
0.07677083333,0.0161918588
0.07679166667,0.01614025049
0.0768125,0.0160385035
0.07683333333,0.01593331061
0.07685416667,0.01578692347
0.076875,0.01562513597
0.07689583333,0.01548325457
0.07691666667,0.01531608216
0.0769375,0.01515835524
0.07695833333,0.0149845304
0.07697916667,0.01480025705
0.077,0.01463808678
0.07702083333,0.01444747113
0.07704166667,0.01427890919
0.0770625,0.01411416661
0.07708333333,0.01395649556
0.07710416667,0.01381154638
0.077125,0.01363810897
0.07714583333,0.01346754283
0.07716666667,0.01332451031
0.0771875,0.0131878797
0.07720833333,0.0130885262
0.07722916667,0.01300067268
0.07725,0.01295869146
0.07727083333,0.01293755509
0.07729166667,0.01287980191
0.0773125,0.01283596922
0.07733333333,0.01279151253
0.07735416667,0.01275947317
0.077375,0.01273992285
0.07739583333,0.01267590187
0.07741666667,0.0126113398
0.0774375,0.01253797393
0.07745833333,0.01245037187
0.07747916667,0.01236809138
0.0775,0.01228292845
0.07752083333,0.01220296416
0.07754166667,0.01212040894
0.0775625,0.01206306554
0.07758333333,0.01198630594
0.07760416667,0.01190770231
0.077625,0.01183713041
0.07764583333,0.01178858988
0.07766666667,0.01174126752
0.0776875,0.01164335012
0.07770833333,0.01151685044
0.07772916667,0.01136816945
0.07775,0.01123555191
0.07777083333,0.01110954769
0.07779166667,0.01096798386
0.0778125,0.01081532706
0.07783333333,0.01063883584
0.07785416667,0.01047891751
0.077875,0.01035093702
0.07789583333,0.01021140721
0.07791666667,0.01009571925
0.0779375,0.009970169514
0.07795833333,0.00985436514
0.07797916667,0.009742508642
0.078,0.009615874849
0.07802083333,0.00951245334
0.07804166667,0.009384676814
0.0780625,0.009241708554
0.07808333333,0.009078943171
0.07810416667,0.008890992031
0.078125,0.008713204414
0.07814583333,0.00854375679
0.07816666667,0.008392018266
0.0781875,0.008228331804
0.07820833333,0.008047520183
0.07822916667,0.007886216976
0.07825,0.007762460504
0.07827083333,0.007657367736
0.07829166667,0.007566196844
0.0783125,0.007454914041
0.07833333333,0.007319854107
0.07835416667,0.007169805933
0.078375,0.007028690074
0.07839583333,0.006894689519
0.07841666667,0.006738659926
0.0784375,0.006593190599
0.07845833333,0.006432581693
0.07847916667,0.006265887525
0.0785,0.006109479815
0.07852083333,0.005939557683
0.07854166667,0.005780204665
0.0785625,0.005644167773
0.07858333333,0.00550818909
0.07860416667,0.005362803116
0.078625,0.005214929581
0.07864583333,0.005054919049
0.07866666667,0.004899643362
0.0786875,0.004771321081
0.07870833333,0.004603468813
0.07872916667,0.004453839269
0.07875,0.004295133054
0.07877083333,0.00413200818
0.07879166667,0.003989320248
0.0788125,0.003836740041
0.07883333333,0.003735010279
0.07885416667,0.003646168159
0.078875,0.00355881732
0.07889583333,0.003497905098
0.07891666667,0.003403868992
0.0789375,0.003324302146
0.07895833333,0.003239003476
0.07897916667,0.003150013974
0.079,0.003083766205
0.07902083333,0.003047057427
0.07904166667,0.003025404178
0.0790625,0.003000204917
0.07908333333,0.002915314399
0.07910416667,0.002854198217
0.079125,0.002803386422
0.07914583333,0.002742277924
0.07916666667,0.002699367469
0.0791875,0.002634160221
0.07920833333,0.002584564267
0.07922916667,0.00252828747
0.07925,0.002464978024
0.07927083333,0.002410150133
0.07929166667,0.002359613543
0.0793125,0.002326367423
0.07933333333,0.002302942099
0.07935416667,0.002256544773
0.079375,0.002180184703
0.07939583333,0.002087521134
0.07941666667,0.001989335986
0.0794375,0.001899900148
0.07945833333,0.001825232292
0.07947916667,0.001719990047
0.0795,0.001599330921
0.07952083333,0.001440834021
0.07954166667,0.001268542139
0.0795625,0.001093202736
0.07958333333,0.0009100509342
0.07960416667,0.0007611713954
0.079625,0.0006066088099
0.07964583333,0.0004810665268
0.07966666667,0.0003447866766
0.0796875,0.0001797120785
0.07970833333,3.897130955e-05
0.07972916667,-0.0001880723285
0.07975,-0.0003642500378
0.07977083333,-0.0005277635064
0.07979166667,-0.0007057235343
0.0798125,-0.0008590090438
0.07983333333,-0.001040189294
0.07985416667,-0.001192872645
0.079875,-0.001331501058
0.07989583333,-0.001474155812
0.07991666667,-0.001579305506
0.0799375,-0.001678778557
0.07995833333,-0.001762357773
0.07997916667,-0.001871648594
0.08,-0.00199328782
0.08002083333,-0.002118701115
0.08004166667,-0.002238765359
0.0800625,-0.002314205747
0.08008333333,-0.002424096921
0.08010416667,-0.002520246198
0.080125,-0.002636416582
0.08014583333,-0.00276157097
0.08016666667,-0.002865866991
0.0801875,-0.002966609318
0.08020833333,-0.003028518055
0.08022916667,-0.003113804152
0.08025,-0.003232545685
0.08027083333,-0.003397293389
0.08029166667,-0.003564999672
0.0803125,-0.003751057899
0.08033333333,-0.003957262728
0.08035416667,-0.004160080571
0.080375,-0.004361803643
0.08039583333,-0.004537396599
0.08041666667,-0.004731389228
0.0804375,-0.004925138317
0.08045833333,-0.005117073189
0.08047916667,-0.005314006936
0.0805,-0.005516726058
0.08052083333,-0.00568863051
0.08054166667,-0.005800536368
0.0805625,-0.005908772349
0.08058333333,-0.006025031209
0.08060416667,-0.006111077964
0.080625,-0.006218481809
0.08064583333,-0.006311465986
0.08066666667,-0.006341073662
0.0806875,-0.006222523749
0.08070833333,-0.005992842373
0.08072916667,-0.005730598699
0.08075,-0.00554791186
0.08077083333,-0.005414810032
0.08079166667,-0.005176711828
0.0808125,-0.004923246801
0.08083333333,-0.004740250763
0.08085416667,-0.004574093502
0.080875,-0.004483962432
0.08089583333,-0.004439850338
0.08091666667,-0.004466579296
0.0809375,-0.004525209311
0.08095833333,-0.004588755779
0.08097916667,-0.004660547245
0.081,-0.004763606936
0.08102083333,-0.004912476987
0.08104166667,-0.005070604384
0.0810625,-0.005254363641
0.08108333333,-0.005421637092
0.08110416667,-0.005649170838
0.081125,-0.00586124789
0.08114583333,-0.00605223421
0.08116666667,-0.006263344549
0.0811875,-0.006446196698
0.08120833333,-0.006646545138
0.08122916667,-0.006831225008
0.08125,-0.007011758629
0.08127083333,-0.007211200893
0.08129166667,-0.007405574899
0.0813125,-0.007588398177
0.08133333333,-0.007730850019
0.08135416667,-0.00787900947
0.081375,-0.008017654531
0.08139583333,-0.008128905669
0.08141666667,-0.008251620457
0.0814375,-0.008354431018
0.08145833333,-0.008458961733
0.08147916667,-0.008548046462
0.0815,-0.00860377308
0.08152083333,-0.008688529953
0.08154166667,-0.008739098907
0.0815625,-0.008776018396
0.08158333333,-0.00884986762
0.08160416667,-0.008861062117
0.081625,-0.008875317872
0.08164583333,-0.008874748833
0.08166666667,-0.008894376457
0.0816875,-0.008914657868
0.08170833333,-0.008907379583
0.08172916667,-0.008949307725
0.08175,-0.008971813135
0.08177083333,-0.009007654153
0.08179166667,-0.009058188647
0.0818125,-0.00909546949
0.08183333333,-0.009142776951
0.08185416667,-0.009165693074
0.081875,-0.009186324663
0.08189583333,-0.00916494336
0.08191666667,-0.009152115323
0.0819375,-0.009156185202
0.08195833333,-0.009119419381
0.08197916667,-0.009096600115
0.082,-0.009073055349
0.08202083333,-0.00905022677
0.08204166667,-0.009053414688
0.0820625,-0.009055844508
0.08208333333,-0.009116739966
0.08210416667,-0.009204290807
0.082125,-0.009271573275
0.08214583333,-0.009378292598
0.08216666667,-0.009460144676
0.0821875,-0.009552018717
0.08220833333,-0.009679586627
0.08222916667,-0.009815563448
0.08225,-0.009996603243
0.08227083333,-0.01018299535
0.08229166667,-0.01043024566
0.0823125,-0.01068655308
0.08233333333,-0.01090929843
0.08235416667,-0.01118724979
0.082375,-0.01144264638
0.08239583333,-0.0117129162
0.08241666667,-0.01199034695
0.0824375,-0.0122686252
0.08245833333,-0.01253915951
0.08247916667,-0.0127602648
0.0825,-0.01298368257
0.08252083333,-0.01318225078
0.08254166667,-0.01339344122
0.0825625,-0.01361477189
0.08258333333,-0.01381198503
0.08260416667,-0.01402766723
0.082625,-0.01421824005
0.08264583333,-0.01441307459
0.08266666667,-0.01465372555
0.0826875,-0.01486635674
0.08270833333,-0.01507970225
0.08272916667,-0.01532535534
0.08275,-0.01553995535
0.08277083333,-0.01571783051
0.08279166667,-0.01591544226
0.0828125,-0.01610719785
0.08283333333,-0.01628847793
0.08285416667,-0.01648843288
0.082875,-0.01670136862
0.08289583333,-0.01691758446
0.08291666667,-0.01709499583
0.0829375,-0.01728955097
0.08295833333,-0.01747974381
0.08297916667,-0.01765817963
0.083,-0.01781387255
0.08302083333,-0.01792233437
0.08304166667,-0.01802973077
0.0830625,-0.0181101691
0.08308333333,-0.01817039959
0.08310416667,-0.01820896938
0.083125,-0.01822979562
0.08314583333,-0.01825726032
0.08316666667,-0.0183236599
0.0831875,-0.01836781949
0.08320833333,-0.01839644462
0.08322916667,-0.01845624857
0.08325,-0.01850518957
0.08327083333,-0.01857999526
0.08329166667,-0.01867549866
0.0833125,-0.01874664798
0.08333333333,-0.01881146803
0.08335416667,-0.01889288984
0.083375,-0.01898625679
0.08339583333,-0.01906883903
0.08341666667,-0.01915019937
0.0834375,-0.01921853609
0.08345833333,-0.01927805133
0.08347916667,-0.0193345882
0.0835,-0.0193674881
0.08352083333,-0.01941207983
0.08354166667,-0.01942157745
0.0835625,-0.01941135526
0.08358333333,-0.01940711215
0.08360416667,-0.01939216629
0.083625,-0.01936429553
0.08364583333,-0.0193445757
0.08366666667,-0.01931708306
0.0836875,-0.01928338408
0.08370833333,-0.01923790574
0.08372916667,-0.01917198114
0.08375,-0.01912319846
0.08377083333,-0.01903831027
0.08379166667,-0.01895192824
0.0838125,-0.01887480728
0.08383333333,-0.01875611022
0.08385416667,-0.01865926012
0.083875,-0.01856051385
0.08389583333,-0.01846046187
0.08391666667,-0.01839894615
0.0839375,-0.01833412796
0.08395833333,-0.01829685085
0.08397916667,-0.01824546419
0.084,-0.01815791428
0.08402083333,-0.01810363121
0.08404166667,-0.0180525668
0.0840625,-0.01801835187
0.08408333333,-0.01801614836
0.08410416667,-0.01803677715
0.084125,-0.01806781068
0.08414583333,-0.01809465885
0.08416666667,-0.01811101101
0.0841875,-0.01812995411
0.08420833333,-0.01816228218
0.08422916667,-0.01819675788
0.08425,-0.01826767437
0.08427083333,-0.01833949052
0.08429166667,-0.01844196394
0.0843125,-0.01856545731
0.08433333333,-0.018667439
0.08435416667,-0.0187803749
0.084375,-0.01884403266
0.08439583333,-0.01889056526
0.08441666667,-0.01895865053
0.0844375,-0.01904037036
0.08445833333,-0.01913785562
0.08447916667,-0.01924755797
0.0845,-0.01937787235
0.08452083333,-0.0194552578
0.08454166667,-0.01953896135
0.0845625,-0.01960252598
0.08458333333,-0.0196539443
0.08460416667,-0.01972279511
0.084625,-0.01974839903
0.08464583333,-0.01977629028
0.08466666667,-0.01980377361
0.0846875,-0.01981305331
0.08470833333,-0.0198167786
0.08472916667,-0.01985426247
0.08475,-0.01989379153
0.08477083333,-0.01991417259
0.08479166667,-0.01994114555
0.0848125,-0.01990111731
0.08483333333,-0.01983767748
0.08485416667,-0.01975604147
0.084875,-0.0196618028
0.08489583333,-0.01960777864
0.08491666667,-0.019554222
0.0849375,-0.01948104799
0.08495833333,-0.01941803284
0.08497916667,-0.01934701577
0.085,-0.01930072159
0.08502083333,-0.01924009062
0.08504166667,-0.01917898282
0.0850625,-0.01918175071
0.08508333333,-0.01915726252
0.08510416667,-0.01917648129
0.085125,-0.01922288723
0.08514583333,-0.01923302002
0.08516666667,-0.01930611022
0.0851875,-0.01938375831
0.08520833333,-0.01949453913
0.08522916667,-0.01961849816
0.08525,-0.01972608268
0.08527083333,-0.01983593404
0.08529166667,-0.01994164474
0.0853125,-0.02010072954
0.08533333333,-0.02026708238
0.08535416667,-0.02044574171
0.085375,-0.02064669132
0.08539583333,-0.02076464519
0.08541666667,-0.02091879398
0.0854375,-0.02103823796
0.08545833333,-0.02107539773
0.08547916667,-0.02112999372
0.0855,-0.0211388655
0.08552083333,-0.02114893496
0.08554166667,-0.02112219855
0.0855625,-0.02106285095
0.08558333333,-0.02099060453
0.08560416667,-0.0208543241
0.085625,-0.02076547965
0.08564583333,-0.0206494946
0.08566666667,-0.02052690089
0.0856875,-0.02044834755
0.08570833333,-0.02034633793
0.08572916667,-0.02024390921
0.08575,-0.02009022795
0.08577083333,-0.0199520383
0.08579166667,-0.01985946111
0.0858125,-0.01972895116
0.08583333333,-0.01960861683
0.08585416667,-0.01948533766
0.085875,-0.01935645565
0.08589583333,-0.0192470178
0.08591666667,-0.01916643791
0.0859375,-0.01910122298
0.08595833333,-0.01905618608
0.08597916667,-0.01903192326
0.086,-0.01898536459
0.08602083333,-0.01896470413
0.08604166667,-0.01896451414
0.0860625,-0.01897285692
0.08608333333,-0.01898638532
0.08610416667,-0.01895478368
0.086125,-0.01891345158
0.08614583333,-0.01889688522
0.08616666667,-0.01887665689
0.0861875,-0.01882687025
0.08620833333,-0.01877120696
0.08622916667,-0.01873334683
0.08625,-0.01867583022
0.08627083333,-0.01862399466
0.08629166667,-0.0185875427
0.0863125,-0.01850242354
0.08633333333,-0.01846802235
0.08635416667,-0.0184404254
0.086375,-0.01839261502
0.08639583333,-0.01837818325
0.08641666667,-0.01834701188
0.0864375,-0.01834306493
0.08645833333,-0.01829362474
0.08647916667,-0.01822593808
0.0865,-0.0181670785
0.08652083333,-0.01809331216
0.08654166667,-0.01809120737
0.0865625,-0.01807924733
0.08658333333,-0.01804552041
0.08660416667,-0.01799200661
0.086625,-0.0179163646
0.08664583333,-0.01783127896
0.08666666667,-0.01772644185
0.0866875,-0.01763071679
0.08670833333,-0.01753952354
0.08672916667,-0.01747300476
0.08675,-0.01738993265
0.08677083333,-0.01728576422
0.08679166667,-0.01720997505
0.0868125,-0.01712747104
0.08683333333,-0.01705225557
0.08685416667,-0.0170018319
0.086875,-0.01694233716
0.08689583333,-0.01685542427
0.08691666667,-0.01676862314
0.0869375,-0.01669750921
0.08695833333,-0.01659046859
0.08697916667,-0.01647635177
0.087,-0.01637274027
0.08702083333,-0.01624863781
0.08704166667,-0.01611475833
0.0870625,-0.0159979593
0.08708333333,-0.01591012813
0.08710416667,-0.01583429985
0.087125,-0.01577856764
0.08714583333,-0.01568585262
0.08716666667,-0.01558719296
0.0871875,-0.01549629774
0.08720833333,-0.01540298574
0.08722916667,-0.01535019744
0.08725,-0.01529593393
0.08727083333,-0.01524133887
0.08729166667,-0.01515538897
0.0873125,-0.01503224298
0.08733333333,-0.01493403781
0.08735416667,-0.01480737515
0.087375,-0.01468507946
0.08739583333,-0.01456877775
0.08741666667,-0.01440901402
0.0874375,-0.01429001614
0.08745833333,-0.01414317172
0.08747916667,-0.01399346814
0.0875,-0.01389122661
0.08752083333,-0.01374512352
0.08754166667,-0.01363662165
0.0875625,-0.01353179477
0.08758333333,-0.01338304766
0.08760416667,-0.01328561455
0.087625,-0.01316607092
0.08764583333,-0.01300724782
0.08766666667,-0.01285866927
0.0876875,-0.01272443309
0.08770833333,-0.01264804229
0.08772916667,-0.01258207113
0.08775,-0.0124979699
0.08777083333,-0.01242015325
0.08779166667,-0.012307995
0.0878125,-0.01219520066
0.08783333333,-0.01207586937
0.08785416667,-0.0119746225
0.087875,-0.01188434754
0.08789583333,-0.01178543456
0.08791666667,-0.01170081738
0.0879375,-0.01161297318
0.08795833333,-0.01154880039
0.08797916667,-0.01150472276
0.088,-0.011439953
0.08802083333,-0.01134153642
0.08804166667,-0.01123566926
0.0880625,-0.01115518436
0.08808333333,-0.01107653044
0.08810416667,-0.01096418221
0.088125,-0.01081999391
0.08814583333,-0.01064994559
0.08816666667,-0.01045169868
0.0881875,-0.01024382841
0.08820833333,-0.01005022693
0.08822916667,-0.00989709422
0.08825,-0.00975687243
0.08827083333,-0.009601492435
0.08829166667,-0.009470827878
0.0883125,-0.009302807972
0.08833333333,-0.009122558869
0.08835416667,-0.00894327648
0.088375,-0.008774632588
0.08839583333,-0.008631365374
0.08841666667,-0.008432969451
0.0884375,-0.008252209052
0.08845833333,-0.008099846542
0.08847916667,-0.00792868156
0.0885,-0.007764641196
0.08852083333,-0.007632426918
0.08854166667,-0.007544163615
0.0885625,-0.007427677512
0.08858333333,-0.007334068418
0.08860416667,-0.007219211198
0.088625,-0.007093118504
0.08864583333,-0.007016397081
0.08866666667,-0.006930456497
0.0886875,-0.006871437188
0.08870833333,-0.006773611996
0.08872916667,-0.006671123207
0.08875,-0.006595639512
0.08877083333,-0.006461766083
0.08879166667,-0.006356854457
0.0888125,-0.006243774667
0.08883333333,-0.006117768586
0.08885416667,-0.006004111841
0.088875,-0.005876924377
0.08889583333,-0.005722590256
0.08891666667,-0.005498444661
0.0889375,-0.005297913216
0.08895833333,-0.005135940388
0.08897916667,-0.004996506963
0.089,-0.004851995036
0.08902083333,-0.00467828149
0.08904166667,-0.004515223671
0.0890625,-0.004320488311
0.08908333333,-0.004111199174
0.08910416667,-0.003944474272
0.089125,-0.003752162214
0.08914583333,-0.003580490826
0.08916666667,-0.003438836429
0.0891875,-0.003257375676
0.08920833333,-0.003068116726
0.08922916667,-0.002946279477
0.08925,-0.002845560666
0.08927083333,-0.002747126622
0.08929166667,-0.002629620954
0.0893125,-0.002527508419
0.08933333333,-0.002448457293
0.08935416667,-0.002340279287
0.089375,-0.002268139971
0.08939583333,-0.002142553916
0.08941666667,-0.00200913311
0.0894375,-0.001894941321
0.08945833333,-0.001685635187
0.08947916667,-0.001512669493
0.0895,-0.0013393634
0.08952083333,-0.001134543563
0.08954166667,-0.001009380911
0.0895625,-0.0008581878501
0.08958333333,-0.0006485851482
