time,data
0,1.588903342e-09
2.083333333e-05,4.490048777e-09
4.166666667e-05,7.311546479e-09
6.25e-05,1.003868544e-08
8.333333333e-05,1.279992379e-08
0.0001041666667,1.565255126e-08
0.000125,1.864158428e-08
0.0001458333333,2.172816949e-08
0.0001666666667,2.481797701e-08
0.0001875,2.791090559e-08
0.0002083333333,3.099234647e-08
0.0002291666667,3.419876293e-08
0.00025,3.756698774e-08
0.0002708333333,4.113689656e-08
0.0002916666667,4.483893434e-08
0.0003125,4.855589353e-08
0.0003333333333,5.225446742e-08
0.0003541666667,5.588243468e-08
0.000375,5.95420353e-08
0.0003958333333,6.323887902e-08
0.0004166666667,6.699226418e-08
0.0004375,7.072716812e-08
0.0004583333333,7.431809479e-08
0.0004791666667,7.773659405e-08
0.0005,8.092238346e-08
0.0005208333333,8.399803875e-08
0.0005416666667,8.698225429e-08
0.0005625,8.994728518e-08
0.0005833333333,9.283377977e-08
0.0006041666667,9.554401714e-08
0.000625,9.801607348e-08
0.0006458333333,1.001657779e-07
0.0006666666667,1.020840088e-07
0.0006875,1.037794917e-07
0.0007083333333,1.053313312e-07
0.0007291666667,1.066669384e-07
0.00075,1.076483969e-07
0.0007708333333,1.081710224e-07
0.0007916666667,1.080923084e-07
0.0008125,1.075420357e-07
0.0008333333333,1.065604778e-07
0.0008541666667,1.053347134e-07
0.000875,1.038287607e-07
0.0008958333333,1.019337788e-07
0.0009166666667,9.952885449e-08
0.0009375,9.648908872e-08
0.0009583333333,9.298116055e-08
0.0009791666667,8.913293925e-08
0.001,8.515256411e-08
0.001020833333,8.100855098e-08
0.001041666667,7.648936418e-08
0.0010625,7.139957603e-08
0.001083333333,6.555162457e-08
0.001104166667,5.913158674e-08
0.001125,5.229920674e-08
0.001145833333,4.531314701e-08
0.001166666667,3.810397331e-08
0.0011875,3.048162966e-08
0.001208333333,2.220919981e-08
0.001229166667,1.321703991e-08
0.00125,3.766999157e-09
0.001270833333,-5.842975881e-09
0.001291666667,-1.530450255e-08
0.0013125,-2.467773719e-08
0.001333333333,-3.418852401e-08
0.001354166667,-4.40767387e-08
0.001375,-5.444915274e-08
0.001395833333,-6.500218319e-08
0.001416666667,-7.552433345e-08
0.0014375,-8.57220499e-08
0.001458333333,-9.577570381e-08
0.001479166667,-1.059227444e-07
0.0015,-1.164364534e-07
0.001520833333,-1.2735849e-07
0.001541666667,-1.383795762e-07
0.0015625,-1.491956283e-07
0.001583333333,-1.595158778e-07
0.001604166667,-1.693901339e-07
0.001625,-1.790160127e-07
0.001645833333,-1.885452576e-07
0.001666666667,-1.980154849e-07
0.0016875,-2.071044065e-07
0.001708333333,-2.155882157e-07
0.001729166667,-2.231758458e-07
0.00175,-2.300117217e-07
0.001770833333,-2.362624087e-07
0.001791666667,-2.422358421e-07
0.0018125,-2.480134071e-07
0.001833333333,-2.53446359e-07
0.001854166667,-2.583119567e-07
0.001875,-2.623286264e-07
0.001895833333,-2.654991249e-07
0.001916666667,-2.679627471e-07
0.0019375,-2.699146648e-07
0.001958333333,-2.715204346e-07
0.001979166667,-2.725226409e-07
0.002,-2.726999924e-07
0.002020833333,-2.715844971e-07
0.002041666667,-2.691486429e-07
0.0020625,-2.655207538e-07
0.002083333333,-2.610881609e-07
0.002104166667,-2.561561132e-07
0.002125,-2.506938301e-07
0.002145833333,-2.444243705e-07
0.002166666667,-2.370025811e-07
0.0021875,-2.282897213e-07
0.002208333333,-2.186369557e-07
0.002229166667,-2.084620405e-07
0.00225,-1.982176201e-07
0.002270833333,-1.877600369e-07
0.002291666667,-1.766730122e-07
0.0023125,-1.643618504e-07
0.002333333333,-1.50644226e-07
0.002354166667,-1.357778672e-07
0.002375,-1.203765407e-07
0.002395833333,-1.048059275e-07
0.002416666667,-8.904729754e-08
0.0024375,-7.253718337e-08
0.002458333333,-5.482700871e-08
0.002479166667,-3.57929153e-08
0.0025,-1.601298472e-08
0.002520833333,3.800101123e-09
0.002541666667,2.305136526e-08
0.0025625,4.189131886e-08
0.002583333333,6.079050507e-08
0.002604166667,8.03636695e-08
0.002625,1.006471138e-07
0.002645833333,1.212044936e-07
0.002666666667,1.413506396e-07
0.0026875,1.607399298e-07
0.002708333333,1.795589526e-07
0.002729166667,1.984872284e-07
0.00275,2.179568668e-07
0.002770833333,2.38127484e-07
0.002791666667,2.583093703e-07
0.0028125,2.779408703e-07
0.002833333333,2.964194437e-07
0.002854166667,3.139167291e-07
0.002875,3.307822283e-07
0.002895833333,3.47399947e-07
0.002916666667,3.637537418e-07
0.0029375,3.793484211e-07
0.002958333333,3.936094402e-07
0.002979166667,4.061932373e-07
0.003,4.171645571e-07
0.003020833333,4.271127523e-07
0.003041666667,4.363785706e-07
0.0030625,4.453633267e-07
0.003083333333,4.536125857e-07
0.003104166667,4.608653228e-07
0.003125,4.665150755e-07
0.003145833333,4.70640714e-07
0.003166666667,4.734428387e-07
0.0031875,4.753674148e-07
0.003208333333,4.766306745e-07
0.003229166667,4.769144084e-07
0.00325,4.756880401e-07
0.003270833333,4.722753886e-07
0.003291666667,4.664657922e-07
0.0033125,4.586793807e-07
0.003333333333,4.494096686e-07
0.003354166667,4.394819939e-07
0.003375,4.285588489e-07
0.003395833333,4.165156895e-07
0.003416666667,4.02396239e-07
0.0034375,3.862838582e-07
0.003458333333,3.685466936e-07
0.003479166667,3.500742025e-07
0.0035,3.316267225e-07
0.003520833333,3.129291883e-07
0.003541666667,2.933342387e-07
0.0035625,2.717805216e-07
0.003583333333,2.478980718e-07
0.003604166667,2.223225266e-07
0.003625,1.957897382e-07
0.003645833333,1.69375582e-07
0.003666666667,1.425384681e-07
0.0036875,1.148524191e-07
0.003708333333,8.507346649e-08
0.003729166667,5.341236431e-08
0.00375,2.056561677e-08
0.003770833333,-1.207969724e-08
0.003791666667,-4.359918293e-08
0.0038125,-7.427684068e-08
0.003833333333,-1.04849633e-07
0.003854166667,-1.36409227e-07
0.003875,-1.689787865e-07
0.003895833333,-2.017355882e-07
0.003916666667,-2.337631457e-07
0.0039375,-2.641281469e-07
0.003958333333,-2.937232466e-07
0.003979166667,-3.230229311e-07
0.004,-3.534638893e-07
0.004020833333,-3.845754577e-07
0.004041666667,-4.157888043e-07
0.0040625,-4.457648402e-07
0.004083333333,-4.737550228e-07
0.004104166667,-5.000800343e-07
0.004125,-5.251945936e-07
0.004145833333,-5.49938477e-07
0.004166666667,-5.740561733e-07
0.0041875,-5.96800362e-07
0.004208333333,-6.173487463e-07
0.004229166667,-6.348510624e-07
0.00425,-6.500559948e-07
0.004270833333,-6.631665883e-07
0.004291666667,-6.756674793e-07
0.0043125,-6.872026574e-07
0.004333333333,-6.979055343e-07
0.004354166667,-7.066416288e-07
0.004375,-7.129274309e-07
0.004395833333,-7.168033562e-07
0.004416666667,-7.185039976e-07
0.0044375,-7.190899964e-07
0.004458333333,-7.184485185e-07
0.004479166667,-7.164029512e-07
0.0045,-7.119364795e-07
0.004520833333,-7.038509011e-07
0.004541666667,-6.924150284e-07
0.0045625,-6.774419035e-07
0.004583333333,-6.609326419e-07
0.004604166667,-6.428293204e-07
0.004625,-6.238759624e-07
0.004645833333,-6.027624977e-07
0.004666666667,-5.787528039e-07
0.0046875,-5.517212003e-07
0.004708333333,-5.221830861e-07
0.004729166667,-4.92006734e-07
0.00475,-4.617335492e-07
0.004770833333,-4.315036222e-07
0.004791666667,-3.998999318e-07
0.0048125,-3.652758949e-07
0.004833333333,-3.275821996e-07
0.004854166667,-2.868879108e-07
0.004875,-2.457188089e-07
0.004895833333,-2.041393543e-07
0.004916666667,-1.629046551e-07
0.0049375,-1.19903163e-07
0.004958333333,-7.428457138e-08
0.004979166667,-2.582451941e-08
0.005,2.431567658e-08
0.005020833333,7.359297882e-08
0.005041666667,1.212860923e-07
0.0050625,1.670658918e-07
0.005083333333,2.12704407e-07
0.005104166667,2.596122215e-07
0.005125,3.075738846e-07
0.005145833333,3.561640938e-07
0.005166666667,4.026315139e-07
0.0051875,4.473052115e-07
0.005208333333,4.896155588e-07
0.005229166667,5.321212484e-07
0.00525,5.754745871e-07
0.005270833333,6.200087341e-07
0.005291666667,6.64467052e-07
0.0053125,7.066866488e-07
0.005333333333,7.461702012e-07
0.005354166667,7.824731938e-07
0.005375,8.171649029e-07
0.005395833333,8.508574751e-07
0.005416666667,8.833760035e-07
0.0054375,9.141455735e-07
0.005458333333,9.408113897e-07
0.005479166667,9.638881693e-07
0.0055,9.822374523e-07
0.005520833333,9.984780718e-07
0.005541666667,1.012634812e-06
0.0055625,1.025953452e-06
0.005583333333,1.037713787e-06
0.005604166667,1.046507805e-06
0.005625,1.052153493e-06
0.005645833333,1.053557412e-06
0.005666666667,1.052317998e-06
0.0056875,1.048807576e-06
0.005708333333,1.04361618e-06
0.005729166667,1.036680828e-06
0.00575,1.025601136e-06
0.005770833333,1.010477263e-06
0.005791666667,9.891114132e-07
0.0058125,9.640028793e-07
0.005833333333,9.352854136e-07
0.005854166667,9.052597534e-07
0.005875,8.736005839e-07
0.005895833333,8.390755397e-07
0.005916666667,8.009682801e-07
0.0059375,7.57919679e-07
0.005958333333,7.121171279e-07
0.005979166667,6.647165378e-07
0.006,6.176798593e-07
0.006020833333,5.709873108e-07
0.006041666667,5.220104526e-07
0.0060625,4.700769125e-07
0.006083333333,4.124475481e-07
0.006104166667,3.523008445e-07
0.006125,2.89954329e-07
0.006145833333,2.285137128e-07
0.006166666667,1.669661742e-07
0.0061875,1.03527988e-07
0.006208333333,3.692779771e-08
0.006229166667,-3.413835969e-08
0.00625,-1.064969837e-07
0.006270833333,-1.783291168e-07
0.006291666667,-2.470503659e-07
0.0063125,-3.129188997e-07
0.006333333333,-3.786339846e-07
0.006354166667,-4.448478421e-07
0.006375,-5.137250128e-07
0.006395833333,-5.815029454e-07
0.006416666667,-6.478811088e-07
0.0064375,-7.097999628e-07
0.006458333333,-7.693539033e-07
0.006479166667,-8.281454598e-07
0.0065,-8.879617894e-07
0.006520833333,-9.496495181e-07
0.006541666667,-1.010124947e-06
0.0065625,-1.068266556e-06
0.006583333333,-1.121314881e-06
0.006604166667,-1.170201358e-06
0.006625,-1.216537726e-06
0.006645833333,-1.260565e-06
0.006666666667,-1.304104103e-06
0.0066875,-1.343118583e-06
0.006708333333,-1.378303637e-06
0.006729166667,-1.40610382e-06
0.00675,-1.428821633e-06
0.006770833333,-1.447226168e-06
0.006791666667,-1.463080935e-06
0.0068125,-1.477927412e-06
0.006833333333,-1.489656938e-06
0.006854166667,-1.498252914e-06
0.006875,-1.501025508e-06
0.006895833333,-1.498654456e-06
0.006916666667,-1.492123488e-06
0.0069375,-1.482095399e-06
0.006958333333,-1.470910775e-06
0.006979166667,-1.455452093e-06
0.007,-1.436452749e-06
0.007020833333,-1.409205879e-06
0.007041666667,-1.375460442e-06
0.0070625,-1.33479125e-06
0.007083333333,-1.290233854e-06
0.007104166667,-1.243940233e-06
0.007125,-1.194812739e-06
0.007145833333,-1.14299462e-06
0.007166666667,-1.084637347e-06
0.0071875,-1.020775926e-06
0.007208333333,-9.523752738e-07
0.007229166667,-8.820308608e-07
0.00725,-8.133906135e-07
0.007270833333,-7.436290161e-07
0.007291666667,-6.732880138e-07
0.0073125,-5.960569069e-07
0.007333333333,-5.137388257e-07
0.007354166667,-4.258971842e-07
0.007375,-3.367754573e-07
0.007395833333,-2.488231416e-07
0.007416666667,-1.60549618e-07
0.0074375,-7.108452849e-08
0.007458333333,2.426134493e-08
0.007479166667,1.240530025e-07
0.0075,2.265481953e-07
0.007520833333,3.276144867e-07
0.007541666667,4.234061066e-07
0.0075625,5.165234711e-07
0.007583333333,6.068143534e-07
0.007604166667,7.005472185e-07
0.007625,7.948317489e-07
0.007645833333,8.900682928e-07
0.007666666667,9.811064956e-07
0.0076875,1.06673167e-06
0.007708333333,1.148721594e-06
0.007729166667,1.228558517e-06
0.00775,1.311105621e-06
0.007770833333,1.39429369e-06
0.007791666667,1.477205842e-06
0.0078125,1.555694553e-06
0.007833333333,1.626972221e-06
0.007854166667,1.693353511e-06
0.007875,1.753899369e-06
0.007895833333,1.814119514e-06
0.007916666667,1.870169513e-06
0.0079375,1.923266154e-06
0.007958333333,1.968280003e-06
0.007979166667,2.004842372e-06
0.008,2.033754981e-06
0.008020833333,2.056061248e-06
0.008041666667,2.076285455e-06
0.0080625,2.093044941e-06
0.008083333333,2.10745975e-06
0.008104166667,2.116120186e-06
0.008125,2.117311624e-06
0.008145833333,2.112147058e-06
0.008166666667,2.0993823e-06
0.0081875,2.084685548e-06
0.008208333333,2.064808996e-06
0.008229166667,2.042807182e-06
0.00825,2.012759069e-06
0.008270833333,1.974143288e-06
0.008291666667,1.925610832e-06
0.0083125,1.867801871e-06
0.008333333333,1.805954071e-06
0.008354166667,1.739706931e-06
0.008375,1.671952077e-06
0.008395833333,1.598640097e-06
0.008416666667,1.517907094e-06
0.0084375,1.430059797e-06
0.008458333333,1.334774879e-06
0.008479166667,1.239667085e-06
0.0085,1.143023724e-06
0.008520833333,1.048972536e-06
0.008541666667,9.503179967e-07
0.0085625,8.458453635e-07
0.008583333333,7.329925324e-07
0.008604166667,6.134820296e-07
0.008625,4.932217053e-07
0.008645833333,3.725535862e-07
0.008666666667,2.538927788e-07
0.0086875,1.31426475e-07
0.008708333333,3.129254855e-09
0.008729166667,-1.311876616e-07
0.00875,-2.697616708e-07
0.008770833333,-4.039661405e-07
0.008791666667,-5.348500736e-07
0.0088125,-6.579933256e-07
0.008833333333,-7.817289429e-07
0.008854166667,-9.05961258e-07
0.008875,-1.033303874e-06
0.008895833333,-1.160383363e-06
0.008916666667,-1.281523851e-06
0.0089375,-1.397201686e-06
0.008958333333,-1.505665068e-06
0.008979166667,-1.613976224e-06
0.009,-1.723385708e-06
0.009020833333,-1.834491172e-06
0.009041666667,-1.945264103e-06
0.0090625,-2.04813e-06
0.009083333333,-2.144927521e-06
0.009104166667,-2.231017106e-06
0.009125,-2.314224503e-06
0.009145833333,-2.392563374e-06
0.009166666667,-2.468650564e-06
0.0091875,-2.538705758e-06
0.009208333333,-2.598464562e-06
0.009229166667,-2.648308055e-06
0.00925,-2.686099833e-06
0.009270833333,-2.718117003e-06
0.009291666667,-2.744879339e-06
0.0093125,-2.768794047e-06
0.009333333333,-2.788986421e-06
0.009354166667,-2.800385346e-06
0.009375,-2.804732731e-06
0.009395833333,-2.796835815e-06
0.009416666667,-2.784071057e-06
0.0094375,-2.763952125e-06
0.009458333333,-2.741453045e-06
0.009479166667,-2.713008826e-06
0.0095,-2.675410769e-06
0.009520833333,-2.627049753e-06
0.009541666667,-2.564055421e-06
0.0095625,-2.492197837e-06
0.009583333333,-2.412182994e-06
0.009604166667,-2.329192284e-06
0.009625,-2.242878736e-06
0.009645833333,-2.148873364e-06
0.009666666667,-2.047491989e-06
0.0096875,-1.933064823e-06
0.009708333333,-1.814266398e-06
0.009729166667,-1.690442787e-06
0.00975,-1.569733172e-06
0.009770833333,-1.44844546e-06
0.009791666667,-1.323319793e-06
0.0098125,-1.1902913e-06
0.009833333333,-1.045161412e-06
0.009854166667,-8.943196121e-07
0.009875,-7.394710906e-07
0.009895833333,-5.87297734e-07
0.009916666667,-4.356672321e-07
0.0099375,-2.795840999e-07
0.009958333333,-1.174267794e-07
0.009979166667,5.576178097e-08
0.01,2.462510054e-07
0.01002083333,4.491107291e-07
0.01004166667,6.192139494e-07
0.0100625,7.608089163e-07
0.01008333333,8.915225749e-07
0.01010416667,1.029470695e-06
0.010125,1.182691335e-06
0.01014583333,1.355446898e-06
0.01016666667,1.524243771e-06
0.0101875,1.678561603e-06
0.01020833333,1.815676796e-06
0.01022916667,1.946511475e-06
0.01025,2.073642236e-06
0.01027083333,2.212266736e-06
0.01029166667,2.358242682e-06
0.0103125,2.508234275e-06
0.01033333333,2.646625944e-06
0.01035416667,2.771490699e-06
0.010375,2.874910479e-06
0.01039583333,2.965812882e-06
0.01041666667,3.04142668e-06
0.0104375,3.105928045e-06
0.01045833333,3.172711558e-06
0.01047916667,3.243239917e-06
0.0105,3.31235151e-06
0.01052083333,3.378692099e-06
0.01054166667,3.430523066e-06
0.0105625,3.466457201e-06
0.01058333333,3.484452236e-06
0.01060416667,3.488875564e-06
0.010625,3.486048854e-06
0.01064583333,3.489490609e-06
0.01066666667,3.486758715e-06
0.0106875,3.479714678e-06
0.01070833333,3.454251782e-06
0.01072916667,3.417902462e-06
0.01075,3.365056955e-06
0.01077083333,3.301052175e-06
0.01079166667,3.230652283e-06
0.0108125,3.152405725e-06
0.01083333333,3.069834293e-06
0.01085416667,2.985534138e-06
0.010875,2.89206946e-06
0.01089583333,2.791729457e-06
0.01091666667,2.658742233e-06
0.0109375,2.515324695e-06
0.01095833333,2.34950744e-06
0.01097916667,2.197377398e-06
0.011,2.049004024e-06
0.01102083333,1.913228061e-06
0.01104166667,1.78855646e-06
0.0110625,1.643579708e-06
0.01108333333,1.473942575e-06
0.01110416667,1.285475719e-06
0.011125,1.079699246e-06
0.01114583333,8.811233556e-07
0.01116666667,6.962490602e-07
0.0111875,5.342594704e-07
0.01120833333,3.569011255e-07
0.01122916667,1.695474339e-07
0.01125,-4.153276123e-08
0.01127083333,-2.646443988e-07
0.01129166667,-4.919477874e-07
0.0113125,-6.906980161e-07
0.01133333333,-8.77438822e-07
0.01135416667,-1.050656124e-06
0.011375,-1.224710331e-06
0.01139583333,-1.405852572e-06
0.01141666667,-1.593978595e-06
0.0114375,-1.782238201e-06
0.01145833333,-1.972812925e-06
0.01147916667,-2.143400252e-06
0.0115,-2.319395207e-06
0.01152083333,-2.477163207e-06
0.01154166667,-2.632572432e-06
0.0115625,-2.773993856e-06
0.01158333333,-2.911655884e-06
0.01160416667,-3.051090061e-06
0.011625,-3.183595936e-06
0.01164583333,-3.319359621e-06
0.01166666667,-3.455968226e-06
0.0116875,-3.56999567e-06
0.01170833333,-3.666980092e-06
0.01172916667,-3.730527396e-06
0.01175,-3.77626202e-06
0.01177083333,-3.817880042e-06
0.01179166667,-3.869830834e-06
0.0118125,-3.92071388e-06
0.01183333333,-3.976897915e-06
0.01185416667,-4.008139967e-06
0.011875,-4.018729669e-06
0.01189583333,-4.019078915e-06
0.01191666667,-3.994426152e-06
0.0119375,-3.968380497e-06
0.01195833333,-3.943096999e-06
0.01197916667,-3.91128151e-06
0.012,-3.889994787e-06
0.01202083333,-3.828227818e-06
0.01204166667,-3.760054369e-06
0.0120625,-3.655114824e-06
0.01208333333,-3.542272452e-06
0.01210416667,-3.39799999e-06
0.012125,-3.247272616e-06
0.01214583333,-3.122354883e-06
0.01216666667,-3.016378059e-06
0.0121875,-2.898894536e-06
0.01220833333,-2.765789986e-06
0.01222916667,-2.600118933e-06
0.01225,-2.426851324e-06
0.01227083333,-2.234730118e-06
0.01229166667,-2.039957735e-06
0.0123125,-1.857104735e-06
0.01233333333,-1.706232752e-06
0.01235416667,-1.513769007e-06
0.012375,-1.308464334e-06
0.01239583333,-1.079365234e-06
0.01241666667,-8.416841979e-07
0.0124375,-5.91563321e-07
0.01245833333,-3.647410836e-07
0.01247916667,-1.600639621e-07
0.0125,3.655661374e-08
0.01252083333,2.273257422e-07
0.01254166667,4.21573219e-07
0.0125625,6.520098168e-07
0.01258333333,8.795624922e-07
0.01260416667,1.124166715e-06
0.012625,1.347309649e-06
0.01264583333,1.557266273e-06
0.01266666667,1.733793624e-06
0.0126875,1.926294317e-06
0.01270833333,2.12168402e-06
0.01272916667,2.330623829e-06
0.01275,2.541163894e-06
0.01277083333,2.766060334e-06
0.01279166667,2.938223815e-06
0.0128125,3.091684221e-06
0.01283333333,3.219096698e-06
0.01285416667,3.348806104e-06
0.012875,3.502191475e-06
0.01289583333,3.678023177e-06
0.01291666667,3.830381047e-06
0.0129375,3.965108135e-06
0.01295833333,4.074116532e-06
0.01297916667,4.148147582e-06
0.013,4.193102541e-06
0.01302083333,4.263607025e-06
0.01304166667,4.321266715e-06
0.0130625,4.390921276e-06
0.01308333333,4.429200544e-06
0.01310416667,4.432966762e-06
0.013125,4.430273293e-06
0.01314583333,4.419840934e-06
0.01316666667,4.398396413e-06
0.0131875,4.397480552e-06
0.01320833333,4.382157385e-06
0.01322916667,4.354335488e-06
0.01325,4.314536454e-06
0.01327083333,4.214703495e-06
0.01329166667,4.088514288e-06
0.0133125,4.000822173e-06
0.01333333333,3.909562565e-06
0.01335416667,3.798886837e-06
0.013375,3.662906238e-06
0.01339583333,3.518595122e-06
0.01341666667,3.33949788e-06
0.0134375,3.139492264e-06
0.01345833333,2.929684342e-06
0.01347916667,2.776315796e-06
0.0135,2.614268396e-06
0.01352083333,2.465977786e-06
0.01354166667,2.285436267e-06
0.0135625,2.088778274e-06
0.01358333333,1.852352966e-06
0.01360416667,1.610059826e-06
0.013625,1.364227955e-06
0.01364583333,1.148427828e-06
0.01366666667,9.359044384e-07
0.0136875,7.377743714e-07
0.01370833333,5.123910682e-07
0.01372916667,2.985636058e-07
0.01375,2.872520355e-08
0.01377083333,-2.826557477e-07
0.01379166667,-5.838055586e-07
0.0138125,-8.548496453e-07
0.01383333333,-1.067188919e-06
0.01385416667,-1.250906053e-06
0.013875,-1.470165785e-06
0.01389583333,-1.66096288e-06
0.01391666667,-1.878119861e-06
0.0139375,-2.121784519e-06
0.01395833333,-2.361843144e-06
0.01397916667,-2.596208788e-06
0.014,-2.813118726e-06
0.01402083333,-2.970786227e-06
0.01404166667,-3.138127795e-06
0.0140625,-3.291702569e-06
0.01408333333,-3.466258704e-06
0.01410416667,-3.633750111e-06
0.014125,-3.844233561e-06
0.01414583333,-4.062783773e-06
0.01416666667,-4.238241672e-06
0.0141875,-4.374728178e-06
0.01420833333,-4.422839993e-06
0.01422916667,-4.418585377e-06
0.01425,-4.441305009e-06
0.01427083333,-4.471326974e-06
0.01429166667,-4.581530902e-06
0.0143125,-4.737297331e-06
0.01433333333,-4.849265679e-06
0.01435416667,-4.836956577e-06
0.014375,-4.717767297e-06
0.01439583333,-4.611481927e-06
0.01441666667,-4.573470051e-06
0.0144375,-4.558497949e-06
0.01445833333,-4.632857326e-06
0.01447916667,-4.670581347e-06
0.0145,-4.659281331e-06
0.01452083333,-4.521307801e-06
0.01454166667,-4.315871138e-06
0.0145625,-4.102519142e-06
0.01458333333,-3.9275983e-06
0.01460416667,-3.800230843e-06
0.014625,-3.750440101e-06
0.01464583333,-3.650597364e-06
0.01466666667,-3.546573907e-06
0.0146875,-3.355788522e-06
0.01470833333,-3.116621656e-06
0.01472916667,-2.855904313e-06
0.01475,-2.614428013e-06
0.01477083333,-2.386628239e-06
0.01479166667,-2.179643388e-06
0.0148125,-2.045110023e-06
0.01483333333,-1.893987928e-06
0.01485416667,-1.627654456e-06
0.014875,-1.273914791e-06
0.01489583333,-9.674163266e-07
0.01491666667,-6.630732514e-07
0.0149375,-4.243344733e-07
0.01495833333,-2.909094121e-07
0.01497916667,-1.684808524e-07
0.015,-5.124633162e-08
0.01502083333,2.190065516e-07
0.01504166667,5.451332754e-07
0.0150625,9.118975299e-07
0.01508333333,1.286184784e-06
0.01510416667,1.644589588e-06
0.015125,1.905499175e-06
0.01514583333,2.100926167e-06
0.01516666667,2.265217972e-06
0.0151875,2.461816621e-06
0.01520833333,2.653715001e-06
0.01522916667,2.874153097e-06
0.01525,3.047293831e-06
0.01527083333,3.291024314e-06
0.01529166667,3.520429345e-06
0.0153125,3.736180361e-06
0.01533333333,3.945066965e-06
0.01535416667,4.142143098e-06
0.015375,4.2018155e-06
0.01539583333,4.382154202e-06
0.01541666667,4.568200893e-06
0.0154375,4.726919087e-06
0.01545833333,4.873019861e-06
0.01547916667,4.946031368e-06
0.0155,4.956364137e-06
0.01552083333,4.881947916e-06
0.01554166667,4.863682989e-06
0.0155625,4.856462965e-06
0.01558333333,4.903154149e-06
0.01560416667,4.99716316e-06
0.015625,5.00514443e-06
0.01564583333,5.040573797e-06
0.01566666667,5.007810614e-06
0.0156875,4.945101409e-06
0.01570833333,4.902801265e-06
0.01572916667,4.864371022e-06
0.01575,4.75242723e-06
0.01577083333,4.575339517e-06
0.01579166667,4.362294476e-06
0.0158125,4.138248187e-06
0.01583333333,4.016913863e-06
0.01585416667,3.911710337e-06
0.015875,3.833079518e-06
0.01589583333,3.732866162e-06
0.01591666667,3.49586503e-06
0.0159375,3.260813628e-06
0.01595833333,2.92132836e-06
0.01597916667,2.695877129e-06
0.016,2.462135853e-06
0.01602083333,2.262429462e-06
0.01604166667,2.066670731e-06
0.0160625,1.91144386e-06
0.01608333333,1.656338782e-06
0.01610416667,1.264936373e-06
0.016125,8.707087886e-07
0.01614583333,4.793818107e-07
0.01616666667,2.162258284e-07
0.0161875,-2.119629983e-08
0.01620833333,-1.685295103e-07
0.01622916667,-2.558978167e-07
0.01625,-4.795036261e-07
0.01627083333,-7.890437814e-07
0.01629166667,-1.295944458e-06
0.0163125,-1.762195211e-06
0.01633333333,-2.124590992e-06
0.01635416667,-2.309733645e-06
0.016375,-2.397017852e-06
0.01639583333,-2.513411573e-06
0.01641666667,-2.671889433e-06
0.0164375,-2.932734105e-06
0.01645833333,-3.281311365e-06
0.01647916667,-3.807331041e-06
0.0165,-4.144919785e-06
0.01652083333,-4.279415862e-06
0.01654166667,-4.32801653e-06
0.0165625,-4.305154107e-06
0.01658333333,-4.438400538e-06
0.01660416667,-4.544993317e-06
0.016625,-4.885326234e-06
0.01664583333,-5.169828455e-06
0.01666666667,-5.467118172e-06
0.0166875,-5.627919563e-06
0.01670833333,-5.637376944e-06
0.01672916667,-5.65223354e-06
0.01675,-5.54297003e-06
0.01677083333,-5.471822988e-06
0.01679166667,-5.603986665e-06
0.0168125,-5.778017112e-06
0.01683333333,-5.886215604e-06
0.01685416667,-5.943541964e-06
0.016875,-5.80878077e-06
0.01689583333,-5.50786217e-06
0.01691666667,-5.285859515e-06
0.0169375,-5.092128504e-06
0.01695833333,-5.175405931e-06
0.01697916667,-5.382891686e-06
0.017,-5.657760994e-06
0.01702083333,-5.684436474e-06
0.01704166667,-5.475554644e-06
0.0170625,-5.12034967e-06
0.01708333333,-4.562011782e-06
0.01710416667,-4.111029284e-06
0.017125,-3.780264933e-06
0.01714583333,-3.651786983e-06
0.01716666667,-3.630335641e-06
0.0171875,-3.515549906e-06
0.01720833333,-3.318637027e-06
0.01722916667,-2.951391934e-06
0.01725,-2.575648523e-06
0.01727083333,-2.18941932e-06
0.01729166667,-1.960181862e-06
0.0173125,-1.88483375e-06
0.01733333333,-1.851729621e-06
0.01735416667,-1.704598731e-06
0.017375,-1.330740474e-06
0.01739583333,-7.61657077e-07
0.01741666667,-1.287961027e-08
0.0174375,6.938515185e-07
0.01745833333,1.131966428e-06
0.01747916667,1.351503442e-06
0.0175,1.382666483e-06
0.01752083333,1.171852887e-06
0.01754166667,1.190472403e-06
0.0175625,1.523579726e-06
0.01758333333,2.018087571e-06
0.01760416667,2.616275424e-06
0.017625,3.265098258e-06
0.01764583333,3.569965884e-06
0.01766666667,3.690456424e-06
0.0176875,3.770309377e-06
0.01770833333,3.937690963e-06
0.01772916667,4.219613402e-06
0.01775,4.642627118e-06
0.01777083333,5.075366971e-06
0.01779166667,5.184304882e-06
0.0178125,5.270222573e-06
0.01783333333,5.204652098e-06
0.01785416667,5.277162018e-06
0.017875,5.338887604e-06
0.01789583333,5.61226625e-06
0.01791666667,5.887290172e-06
0.0179375,6.178238891e-06
0.01795833333,6.472300356e-06
0.01797916667,6.736246632e-06
0.018,6.883045899e-06
0.01802083333,6.83052258e-06
0.01804166667,6.607806881e-06
0.0180625,6.548252713e-06
0.01808333333,6.370514711e-06
0.01810416667,6.267306617e-06
0.018125,6.209922503e-06
0.01814583333,6.326163202e-06
0.01816666667,6.538668458e-06
0.0181875,6.576574833e-06
0.01820833333,6.478895557e-06
0.01822916667,6.284097253e-06
0.01825,6.078049864e-06
0.01827083333,5.717241947e-06
0.01829166667,5.597881682e-06
0.0183125,5.414505722e-06
0.01833333333,5.312626854e-06
0.01835416667,5.302089448e-06
0.018375,4.997742053e-06
0.01839583333,4.722771337e-06
0.01841666667,4.363530934e-06
0.0184375,3.911289696e-06
0.01845833333,3.510442866e-06
0.01847916667,3.228763717e-06
0.0185,3.209605666e-06
0.01852083333,3.077363317e-06
0.01854166667,2.867038575e-06
0.0185625,2.374914402e-06
0.01858333333,1.96202609e-06
0.01860416667,1.426028348e-06
0.018625,9.298968848e-07
0.01864583333,6.988199175e-07
0.01866666667,5.236024663e-07
0.0186875,5.018171123e-07
0.01870833333,2.467185993e-07
0.01872916667,2.707855629e-08
0.01875,-4.664379389e-07
0.01877083333,-1.00754562e-06
0.01879166667,-1.547819352e-06
0.0188125,-2.061485247e-06
0.01883333333,-2.242679329e-06
0.01885416667,-2.452097306e-06
0.018875,-2.581646413e-06
0.01889583333,-2.816119604e-06
0.01891666667,-3.205163011e-06
0.0189375,-3.601068101e-06
0.01895833333,-4.071379408e-06
0.01897916667,-4.398832061e-06
0.019,-4.58382101e-06
0.01902083333,-4.531022114e-06
0.01904166667,-4.675142009e-06
0.0190625,-4.863785762e-06
0.01908333333,-5.152804988e-06
0.01910416667,-5.534004231e-06
0.019125,-5.933732155e-06
0.01914583333,-6.173267593e-06
0.01916666667,-6.165995728e-06
0.0191875,-6.146417491e-06
0.01920833333,-6.111973107e-06
0.01922916667,-5.950289051e-06
0.01925,-6.175645922e-06
0.01927083333,-6.471984307e-06
0.01929166667,-6.809063962e-06
0.0193125,-7.107130386e-06
0.01933333333,-7.026078492e-06
0.01935416667,-6.695156571e-06
0.019375,-6.322252375e-06
0.01939583333,-5.967541711e-06
0.01941666667,-5.890109605e-06
0.0194375,-6.130297606e-06
0.01945833333,-6.456551546e-06
0.01947916667,-6.652301636e-06
0.0195,-6.490431588e-06
0.01952083333,-6.033213594e-06
0.01954166667,-5.533222975e-06
0.0195625,-5.075699846e-06
0.01958333333,-4.881789209e-06
0.01960416667,-4.80967401e-06
0.019625,-4.811061444e-06
0.01964583333,-4.715838259e-06
0.01966666667,-4.348339189e-06
0.0196875,-4.101288141e-06
0.01970833333,-3.583757689e-06
0.01972916667,-3.130714276e-06
0.01975,-2.82002793e-06
0.01977083333,-2.451129603e-06
0.01979166667,-2.495992021e-06
0.0198125,-2.354046956e-06
0.01983333333,-2.125178526e-06
0.01985416667,-1.739235358e-06
0.019875,-9.898028566e-07
0.01989583333,-2.415154654e-07
0.01991666667,5.337175253e-07
0.0199375,1.125838253e-06
0.01995833333,1.401268491e-06
0.01997916667,1.124022788e-06
0.02,4.381718099e-07
0.02002083333,4.478025062e-07
0.02004166667,7.359419669e-07
0.0200625,1.225794563e-06
0.02008333333,1.784126539e-06
0.02010416667,2.266006277e-06
0.020125,2.648578857e-06
0.02014583333,3.060465815e-06
0.02016666667,3.219269956e-06
0.0201875,3.648247684e-06
0.02020833333,4.190057552e-06
0.02022916667,4.590047865e-06
0.02025,5.026098279e-06
0.02027083333,5.273210718e-06
0.02029166667,5.319390766e-06
0.0203125,5.377567959e-06
0.02033333333,5.36673042e-06
0.02035416667,5.629892257e-06
0.020375,5.899654298e-06
0.02039583333,6.334865702e-06
0.02041666667,6.522419426e-06
0.0204375,7.040614491e-06
0.02045833333,7.561246548e-06
0.02047916667,7.928118976e-06
0.0205,8.275353139e-06
0.02052083333,8.435860764e-06
0.02054166667,8.632766367e-06
0.0205625,8.663302651e-06
0.02058333333,8.772586625e-06
0.02060416667,8.842083844e-06
0.020625,9.12411997e-06
0.02064583333,9.391940694e-06
0.02066666667,9.436054825e-06
0.0206875,9.701556337e-06
0.02070833333,9.740364476e-06
0.02072916667,9.945993952e-06
0.02075,1.01595906e-05
0.02077083333,1.020584568e-05
0.02079166667,1.030867679e-05
0.0208125,1.019326555e-05
0.02083333333,1.019279989e-05
0.02085416667,1.003555735e-05
0.020875,9.82714846e-06
0.02089583333,9.568740097e-06
0.02091666667,9.256167687e-06
0.0209375,9.114788554e-06
0.02095833333,9.218868399e-06
0.02097916667,9.282487554e-06
0.021,9.155750377e-06
0.02102083333,9.121895346e-06
0.02104166667,8.929186151e-06
0.0210625,8.949684343e-06
0.02108333333,8.845648154e-06
0.02110416667,8.712915587e-06
0.021125,8.681437976e-06
0.02114583333,8.487229024e-06
0.02116666667,8.345859897e-06
0.0211875,7.792777978e-06
0.02120833333,7.520159215e-06
0.02122916667,7.495251339e-06
0.02125,7.585381354e-06
0.02127083333,8.054576028e-06
0.02129166667,8.363695088e-06
0.0213125,8.701276784e-06
0.02133333333,9.13259646e-06
0.02135416667,9.626131941e-06
0.021375,1.00287607e-05
0.02139583333,1.04811561e-05
0.02141666667,1.070260987e-05
0.0214375,1.100072222e-05
0.02145833333,1.143632289e-05
0.02147916667,1.190665989e-05
0.0215,1.263737249e-05
0.02152083333,1.338401853e-05
0.02154166667,1.412325946e-05
0.0215625,1.484122549e-05
0.02158333333,1.534557305e-05
0.02160416667,1.590033025e-05
0.021625,1.637897003e-05
0.02164583333,1.708207492e-05
0.02166666667,1.730281292e-05
0.0216875,1.779257218e-05
0.02170833333,1.805123611e-05
0.02172916667,1.836317642e-05
0.02175,1.852528112e-05
0.02177083333,1.848847023e-05
0.02179166667,1.867076753e-05
0.0218125,1.891587272e-05
0.02183333333,1.913587403e-05
0.02185416667,1.971371239e-05
0.021875,2.020437387e-05
0.02189583333,2.09037371e-05
0.02191666667,2.12841569e-05
0.0219375,2.1030266e-05
0.02195833333,2.07954854e-05
0.02197916667,2.057979691e-05
0.022,2.046006739e-05
0.02202083333,2.121776197e-05
0.02204166667,2.219928137e-05
0.0220625,2.327882066e-05
0.02208333333,2.44509356e-05
0.02210416667,2.498559661e-05
0.022125,2.520921953e-05
0.02214583333,2.561298606e-05
0.02216666667,2.566972944e-05
0.0221875,2.635766577e-05
0.02220833333,2.727930951e-05
0.02222916667,2.867267176e-05
0.02225,3.023510726e-05
0.02227083333,3.126840966e-05
0.02229166667,3.170868149e-05
0.0223125,3.178192128e-05
0.02233333333,3.220832514e-05
0.02235416667,3.317186201e-05
0.022375,3.488539005e-05
0.02239583333,3.718425432e-05
0.02241666667,3.910838495e-05
0.0224375,4.01175057e-05
0.02245833333,4.002286005e-05
0.02247916667,3.935404675e-05
0.0225,3.868664498e-05
0.02252083333,3.903473771e-05
0.02254166667,4.004812945e-05
0.0225625,4.192669439e-05
0.02258333333,4.386435103e-05
0.02260416667,4.533668471e-05
0.022625,4.599305976e-05
0.02264583333,4.627947055e-05
0.02266666667,4.652294592e-05
0.0226875,4.725542749e-05
0.02270833333,4.79670598e-05
0.02272916667,4.940901999e-05
0.02275,5.070916086e-05
0.02277083333,5.201183012e-05
0.02279166667,5.278212484e-05
0.0228125,5.28989367e-05
0.02283333333,5.31611513e-05
0.02285416667,5.381038864e-05
0.022875,5.480107211e-05
0.02289583333,5.688775855e-05
0.02291666667,5.897277151e-05
0.0229375,6.086079156e-05
0.02295833333,6.197205948e-05
0.02297916667,6.258866051e-05
0.023,6.251655577e-05
0.02302083333,6.280512025e-05
0.02304166667,6.357918028e-05
0.0230625,6.49669455e-05
0.02308333333,6.652453158e-05
0.02310416667,6.789813779e-05
0.023125,6.833097723e-05
0.02314583333,6.880798173e-05
0.02316666667,6.907805073e-05
0.0231875,6.921765453e-05
0.02320833333,7.042235666e-05
0.02322916667,7.161658868e-05
0.02325,7.274382369e-05
0.02327083333,7.400178583e-05
0.02329166667,7.461349742e-05
0.0233125,7.508938143e-05
0.02333333333,7.535435725e-05
0.02335416667,7.578208897e-05
0.023375,7.616679068e-05
0.02339583333,7.698638365e-05
0.02341666667,7.761817687e-05
0.0234375,7.835738506e-05
0.02345833333,7.949232531e-05
0.02347916667,8.034794882e-05
0.0235,8.092088683e-05
0.02352083333,8.103213622e-05
0.02354166667,8.067327872e-05
0.0235625,8.079463441e-05
0.02358333333,8.120236453e-05
0.02360416667,8.222262841e-05
0.023625,8.359525236e-05
0.02364583333,8.461228572e-05
0.02366666667,8.470775356e-05
0.0236875,8.424134285e-05
0.02370833333,8.284090291e-05
0.02372916667,8.211439854e-05
0.02375,8.196415729e-05
0.02377083333,8.29377168e-05
0.02379166667,8.388171409e-05
0.0238125,8.524327859e-05
0.02383333333,8.512450586e-05
0.02385416667,8.511345368e-05
0.023875,8.482134581e-05
0.02389583333,8.499438263e-05
0.02391666667,8.558601257e-05
0.0239375,8.656920545e-05
0.02395833333,8.756462921e-05
0.02397916667,8.846046694e-05
0.024,8.877139771e-05
0.02402083333,8.877173968e-05
0.02404166667,8.849491132e-05
0.0240625,8.829670696e-05
0.02408333333,8.815548063e-05
0.02410416667,8.8934823e-05
0.024125,8.9809153e-05
0.02414583333,9.097192378e-05
0.02416666667,9.150413825e-05
0.0241875,9.195678285e-05
0.02420833333,9.146835509e-05
0.02422916667,9.085072088e-05
0.02425,9.010398935e-05
0.02427083333,8.99590159e-05
0.02429166667,9.007389599e-05
0.0243125,9.042362944e-05
0.02433333333,9.041057638e-05
0.02435416667,9.033043898e-05
0.024375,8.994862583e-05
0.02439583333,9.006928303e-05
0.02441666667,8.988290938e-05
0.0244375,9.031751688e-05
0.02445833333,9.045040497e-05
0.02447916667,9.048134234e-05
0.0245,9.016752301e-05
0.02452083333,8.983134467e-05
0.02454166667,8.959119441e-05
0.0245625,8.906710718e-05
0.02458333333,8.826507838e-05
0.02460416667,8.802836965e-05
0.024625,8.796208567e-05
0.02464583333,8.859812806e-05
0.02466666667,8.938055544e-05
0.0246875,9.01816893e-05
0.02470833333,9.042538295e-05
0.02472916667,9.026884072e-05
0.02475,8.97597638e-05
0.02477083333,9.024750761e-05
0.02479166667,9.066821804e-05
0.0248125,9.154949657e-05
0.02483333333,9.175357991e-05
0.02485416667,9.163227514e-05
0.024875,9.076905553e-05
0.02489583333,9.080085147e-05
0.02491666667,9.148105892e-05
0.0249375,9.324674465e-05
0.02495833333,9.523072367e-05
0.02497916667,9.723765106e-05
0.025,9.79361721e-05
0.02502083333,9.878428682e-05
0.02504166667,9.898412827e-05
0.0250625,9.940787277e-05
0.02508333333,9.994953143e-05
0.02510416667,0.0001009011685
0.025125,0.0001010812775
0.02514583333,0.000101687554
0.02516666667,0.0001014323934
0.0251875,0.0001011378263
0.02520833333,0.000100572579
0.02522916667,9.969597886e-05
0.02525,9.876453987e-05
0.02527083333,9.869114001e-05
0.02529166667,9.912744281e-05
0.0253125,9.926336497e-05
0.02533333333,9.916946146e-05
0.02535416667,9.839817358e-05
0.025375,9.603830404e-05
0.02539583333,9.340261022e-05
0.02541666667,9.071730892e-05
0.0254375,8.873023035e-05
0.02545833333,8.75096739e-05
0.02547916667,8.700598846e-05
0.0255,8.583016461e-05
0.02552083333,8.446293941e-05
0.02554166667,8.260353206e-05
0.0255625,8.052454359e-05
0.02558333333,7.947056292e-05
0.02560416667,7.886877574e-05
0.025625,7.732959057e-05
0.02564583333,7.653438661e-05
0.02566666667,7.407464727e-05
0.0256875,7.202669804e-05
0.02570833333,6.908678915e-05
0.02572916667,6.666914123e-05
0.02575,6.425412721e-05
0.02577083333,6.318831583e-05
0.02579166667,6.144429062e-05
0.0258125,6.015608233e-05
0.02583333333,5.841487291e-05
0.02585416667,5.741969653e-05
0.025875,5.540822167e-05
0.02589583333,5.42805501e-05
0.02591666667,5.149580102e-05
0.0259375,4.892023935e-05
0.02595833333,4.620592517e-05
0.02597916667,4.339610314e-05
0.026,3.923822806e-05
0.02602083333,3.655484034e-05
0.02604166667,3.343287608e-05
0.0260625,3.028793253e-05
0.02608333333,2.757077345e-05
0.02610416667,2.526900425e-05
0.026125,2.326809954e-05
0.02614583333,2.151805893e-05
0.02616666667,1.919599708e-05
0.0261875,1.670371057e-05
0.02620833333,1.28479187e-05
0.02622916667,8.397021702e-06
0.02625,3.906868187e-06
0.02627083333,-1.894823072e-07
0.02629166667,-3.340773674e-06
0.0263125,-6.24237191e-06
0.02633333333,-8.400023034e-06
0.02635416667,-1.098978464e-05
0.026375,-1.438062009e-05
0.02639583333,-1.754516052e-05
0.02641666667,-2.118652992e-05
0.0264375,-2.479923387e-05
0.02645833333,-2.805608165e-05
0.02647916667,-3.136557643e-05
0.0265,-3.478741928e-05
0.02652083333,-3.858613127e-05
0.02654166667,-4.327585339e-05
0.0265625,-4.79338014e-05
0.02658333333,-5.234227865e-05
0.02660416667,-5.530318231e-05
0.026625,-5.807974958e-05
0.02664583333,-5.985008465e-05
0.02666666667,-6.276534987e-05
0.0266875,-6.553950516e-05
0.02670833333,-6.978363672e-05
0.02672916667,-7.34174173e-05
0.02675,-7.743323658e-05
0.02677083333,-7.999247464e-05
0.02679166667,-8.264480857e-05
0.0268125,-8.460303798e-05
0.02683333333,-8.813114255e-05
0.02685416667,-9.184233932e-05
0.026875,-9.688792488e-05
0.02689583333,-0.0001003810248
0.02691666667,-0.0001050336723
0.0269375,-0.000108431901
0.02695833333,-0.0001123070251
0.02697916667,-0.0001169415045
0.027,-0.0001242694852
0.02702083333,-0.0001300526492
0.02704166667,-0.0001355721906
0.0270625,-0.0001397786837
0.02708333333,-0.000142499106
0.02710416667,-0.0001447620889
0.027125,-0.0001477839251
0.02714583333,-0.0001510645961
0.02716666667,-0.000156198279
0.0271875,-0.0001606633014
0.02720833333,-0.000165577163
0.02722916667,-0.0001687589829
0.02725,-0.0001715412218
0.02727083333,-0.0001733892714
0.02729166667,-0.0001764049812
0.0273125,-0.0001804283675
0.02733333333,-0.0001855783921
0.02735416667,-0.0001908057457
0.027375,-0.0001950126461
0.02739583333,-0.0001983322436
0.02741666667,-0.0002007953444
0.0274375,-0.0002034595527
0.02745833333,-0.0002077420068
0.02747916667,-0.000213726642
0.0275,-0.0002201169846
0.02752083333,-0.0002260975016
0.02754166667,-0.0002298292384
0.0275625,-0.000231438069
0.02758333333,-0.0002321381762
0.02760416667,-0.0002330787102
0.027625,-0.0002359559876
0.02764583333,-0.0002392726165
0.02766666667,-0.0002436218638
0.0276875,-0.0002468616876
0.02770833333,-0.0002501203271
0.02772916667,-0.000253297796
0.02775,-0.0002580198052
0.02777083333,-0.0002626097703
0.02779166667,-0.0002681555343
0.0278125,-0.000272195728
0.02783333333,-0.0002748889965
0.02785416667,-0.0002749250561
0.027875,-0.0002767581027
0.02789583333,-0.0002780609357
0.02791666667,-0.0002830399608
0.0279375,-0.0002881849068
0.02795833333,-0.0002936273813
0.02797916667,-0.0002984030289
0.028,-0.0003031765518
0.02802083333,-0.0003040590091
0.02804166667,-0.0003065474448
0.0280625,-0.0003083228366
0.02808333333,-0.0003115624422
0.02810416667,-0.0003153641301
0.028125,-0.0003187532129
0.02814583333,-0.0003209618153
0.02816666667,-0.0003236373304
0.0281875,-0.0003254254989
0.02820833333,-0.0003305541177
0.02822916667,-0.0003377734683
0.02825,-0.0003487028007
0.02827083333,-0.000357663841
0.02829166667,-0.0003663849493
0.0283125,-0.0003695192572
0.02833333333,-0.000369383517
0.02835416667,-0.0003689464938
0.028375,-0.0003691460879
0.02839583333,-0.0003742372501
0.02841666667,-0.0003829855705
0.0284375,-0.0003924831108
0.02845833333,-0.0004009574477
0.02847916667,-0.0004055722675
0.0285,-0.0004080899816
0.02852083333,-0.0004114830808
0.02854166667,-0.0004201670818
0.0285625,-0.0004317517451
0.02858333333,-0.0004444415681
0.02860416667,-0.000454285735
0.028625,-0.0004577297659
0.02864583333,-0.0004555406922
0.02866666667,-0.0004547737772
0.0286875,-0.0004572944017
0.02870833333,-0.0004661555868
0.02872916667,-0.0004793702392
0.02875,-0.00049289054
0.02877083333,-0.0004968575086
0.02879166667,-0.0004988351138
0.0288125,-0.0004961640225
0.02883333333,-0.0004966655979
0.02885416667,-0.0004993967013
0.028875,-0.0005064081633
0.02889583333,-0.0005112023209
0.02891666667,-0.0005159263383
0.0289375,-0.000518122979
0.02895833333,-0.0005162167945
0.02897916667,-0.0005202072789
0.029,-0.000528588891
0.02902083333,-0.0005355738103
0.02904166667,-0.0005470360629
0.0290625,-0.0005524884909
0.02908333333,-0.0005574511597
0.02910416667,-0.0005559191923
0.029125,-0.0005581015139
0.02914583333,-0.0005575210089
0.02916666667,-0.0005626599304
0.0291875,-0.0005733084399
0.02920833333,-0.0005875068018
0.02922916667,-0.0006012665108
0.02925,-0.0006123358617
0.02927083333,-0.0006181033095
0.02929166667,-0.0006185786333
0.0293125,-0.0006184241502
0.02933333333,-0.0006180183846
0.02935416667,-0.0006204916863
0.029375,-0.0006304348935
0.02939583333,-0.0006371818017
0.02941666667,-0.0006404119777
0.0294375,-0.0006395063247
0.02945833333,-0.0006393639487
0.02947916667,-0.0006428300985
0.0295,-0.0006505667698
0.02952083333,-0.0006591533893
0.02954166667,-0.0006761355326
0.0295625,-0.0006847457844
0.02958333333,-0.0006770513137
0.02960416667,-0.0006617706968
0.029625,-0.0006425355677
0.02964583333,-0.0006420540158
0.02966666667,-0.0006482790341
0.0296875,-0.0006761957193
0.02970833333,-0.0006939391606
0.02972916667,-0.000703121128
0.02975,-0.0006992407143
0.02977083333,-0.0006877654814
0.02979166667,-0.0006846471806
0.0298125,-0.0006886972697
0.02983333333,-0.0007003883366
0.02985416667,-0.0007172222249
0.029875,-0.0007397374138
0.02989583333,-0.0007404243806
0.02991666667,-0.0007320872974
0.0299375,-0.0007522905944
0.02995833333,-0.0007624916034
0.02997916667,-0.0007890837733
0.03,0.0001872068242
0.03002083333,0.0001546555577
0.03004166667,0.0001376893342
0.0300625,0.0001072696832
0.03008333333,9.602047794e-05
0.03010416667,8.864809934e-05
0.030125,5.517532918e-05
0.03014583333,3.440872752e-05
0.03016666667,1.847684325e-05
0.0301875,2.377320925e-05
0.03020833333,3.817924153e-05
0.03022916667,6.781518459e-05
0.03025,7.606935105e-05
0.03027083333,7.062790246e-05
0.03029166667,6.047615898e-05
0.0303125,3.903070683e-05
0.03033333333,2.75964012e-05
0.03035416667,3.070290404e-05
0.030375,4.660298146e-05
0.03039583333,8.367351984e-05
0.03041666667,8.119389531e-05
0.0304375,7.240827836e-05
0.03045833333,3.566929809e-05
0.03047916667,1.541728489e-05
0.0305,-5.440379937e-06
0.03052083333,-2.522029354e-05
0.03054166667,-4.173535126e-05
0.0305625,-3.563161954e-05
0.03058333333,-2.554659841e-05
0.03060416667,-3.642229422e-05
0.030625,-3.545034997e-05
0.03064583333,-4.07929183e-05
0.03066666667,-3.393374209e-05
0.0306875,-3.454582475e-05
0.03070833333,-4.809725942e-05
0.03072916667,-7.149809971e-05
0.03075,-9.283114923e-05
0.03077083333,-0.0001204358341
0.03079166667,-0.0001351520768
0.0308125,-0.0001694932726
0.03083333333,-0.0001760393643
0.03085416667,-0.0001683312439
0.030875,-0.0001735436235
0.03089583333,-0.0001812712871
0.03091666667,-0.0001857818279
0.0309375,-0.0001952329185
0.03095833333,-0.0001906631223
0.03097916667,-0.0002016028593
0.031,-0.0002175547561
0.03102083333,-0.0002212584222
0.03104166667,-0.0002204108896
0.0310625,-0.0002267193049
0.03108333333,-0.0002324153465
0.03110416667,-0.0002516996756
0.031125,-0.0002513056388
0.03114583333,-0.0002674298885
0.03116666667,-0.0002846135176
0.0311875,-0.000293135643
0.03120833333,-0.0002991637157
0.03122916667,-0.0003205480753
0.03125,-0.0003270469315
0.03127083333,-0.0003357171663
0.03129166667,-0.0003492212272
0.0313125,-0.0003630442661
0.03133333333,-0.0003607944527
0.03135416667,-0.0003812524956
0.031375,-0.0003925201308
0.03139583333,-0.0004345572961
0.03141666667,-0.0004663587315
0.0314375,-0.0004897468025
0.03145833333,-0.0005084038712
0.03147916667,-0.0005034931237
0.0315,-0.00055147073
0.03152083333,-0.0005439106608
0.03154166667,-0.0005750412238
0.0315625,-0.0005872392794
0.03158333333,-0.0006296211504
0.03160416667,-0.0006350917392
0.031625,-0.0006542523624
0.03164583333,-0.0006637895131
0.03166666667,-0.0006709474837
0.0316875,-0.0006656539626
0.03170833333,-0.0006762052071
0.03172916667,-0.0006980882026
0.03175,-0.0007067144616
0.03177083333,-0.0007027577376
0.03179166667,-0.0007046224782
0.0318125,-0.0006790246116
0.03183333333,-0.0006736175856
0.03185416667,-0.0006621438079
0.031875,-0.0006860531284
0.03189583333,-0.0006925958442
0.03191666667,-0.0007028694381
0.0319375,-0.000708897307
0.03195833333,-0.0007162757101
0.03197916667,-0.0007168395096
0.032,-0.0007243394502
0.03202083333,-0.000742612232
0.03204166667,-0.0007292850059
0.0320625,-0.000742556178
0.03208333333,-0.0007755783736
0.03210416667,-0.0007935936446
0.032125,-0.0008110372
0.03214583333,-0.0008271135157
0.03216666667,-0.0008304834482
0.0321875,-0.0008437727229
0.03220833333,-0.000856626255
0.03222916667,-0.0009097072762
0.03225,-0.0009310733876
0.03227083333,-0.0009853433585
0.03229166667,-0.001005507656
0.0323125,-0.001047147205
0.03233333333,-0.001084660646
0.03235416667,-0.001118024345
0.032375,-0.001112100086
0.03239583333,-0.001157051651
0.03241666667,-0.001127748867
0.0324375,-0.001157386112
0.03245833333,-0.001158000901
0.03247916667,-0.00118168653
0.0325,-0.001178907696
0.03252083333,-0.001201281091
0.03254166667,-0.001217341982
0.0325625,-0.001229465706
0.03258333333,-0.001246879227
0.03260416667,-0.001291707042
0.032625,-0.001302333898
0.03264583333,-0.001316204551
0.03266666667,-0.001344712451
0.0326875,-0.001353110303
0.03270833333,-0.001379024005
0.03272916667,-0.001375299064
0.03275,-0.001385203213
0.03277083333,-0.001383778057
0.03279166667,-0.001412281301
0.0328125,-0.001420635963
0.03283333333,-0.001404496608
0.03285416667,-0.001388187171
0.032875,-0.001398970373
0.03289583333,-0.001371541293
0.03291666667,-0.001372798812
0.0329375,-0.001357460395
0.03295833333,-0.001368245692
0.03297916667,-0.001400785055
0.033,-0.001443107147
0.03302083333,-0.001470026327
0.03304166667,-0.001489731018
0.0330625,-0.001520213555
0.03308333333,-0.001541200443
0.03310416667,-0.001510189031
0.033125,-0.00152698881
0.03314583333,-0.001519751269
0.03316666667,-0.001512684976
0.0331875,-0.001501481631
0.03320833333,-0.001476402162
0.03322916667,-0.001473249518
0.03325,-0.001436500112
0.03327083333,-0.00141369761
0.03329166667,-0.001427845564
0.0333125,-0.00143938337
0.03333333333,-0.001478864462
0.03335416667,-0.001498458325
0.033375,-0.001528407563
0.03339583333,-0.001513398136
0.03341666667,-0.001556323841
0.0334375,-0.001580008538
0.03345833333,-0.001608975464
0.03347916667,-0.001643251046
0.0335,-0.001625648583
0.03352083333,-0.001700309454
0.03354166667,-0.001696324209
0.0335625,-0.001711799181
0.03358333333,-0.001756087411
0.03360416667,-0.001756598358
0.033625,-0.001787393005
0.03364583333,-0.00180145388
0.03366666667,-0.001790590351
0.0336875,-0.001839245204
0.03370833333,-0.00183489651
0.03372916667,-0.001898576505
0.03375,-0.001888192259
0.03377083333,-0.001921153162
0.03379166667,-0.001899745082
0.0338125,-0.001927438308
0.03383333333,-0.001886951854
0.03385416667,-0.001903926255
0.033875,-0.001887494582
0.03389583333,-0.001870549284
0.03391666667,-0.001847812789
0.0339375,-0.00181028212
0.03395833333,-0.001791349729
0.03397916667,-0.001787647489
0.034,-0.001779435668
0.03402083333,-0.001806350891
0.03404166667,-0.001804897562
0.0340625,-0.001831060043
0.03408333333,-0.001843241276
0.03410416667,-0.001897020382
0.034125,-0.001895952038
0.03414583333,-0.001896839472
0.03416666667,-0.001918856055
0.0341875,-0.001901266049
0.03420833333,-0.001932223211
0.03422916667,-0.001901016338
0.03425,-0.00194852706
0.03427083333,-0.001896841452
0.03429166667,-0.001892023371
0.0343125,-0.00184308656
0.03433333333,-0.001840533921
0.03435416667,-0.00182011479
0.034375,-0.001853221562
0.03439583333,-0.001835768577
0.03441666667,-0.001888034865
0.0344375,-0.001849721535
0.03445833333,-0.001922442229
0.03447916667,-0.001943661249
0.0345,-0.002004290698
0.03452083333,-0.002050854731
0.03454166667,-0.002109543188
0.0345625,-0.002162642311
0.03458333333,-0.002219091635
0.03460416667,-0.002282933099
0.034625,-0.002366432222
0.03464583333,-0.002403599443
0.03466666667,-0.002499683062
0.0346875,-0.002557223197
0.03470833333,-0.002655081917
0.03472916667,-0.002696381183
0.03475,-0.002753782319
0.03477083333,-0.002843422117
0.03479166667,-0.00288407458
0.0348125,-0.002912214724
0.03483333333,-0.002931524999
0.03485416667,-0.002931085648
0.034875,-0.002914254554
0.03489583333,-0.002923957072
0.03491666667,-0.00293255318
0.0349375,-0.002951573813
0.03495833333,-0.002971011912
0.03497916667,-0.003041941207
0.035,-0.003078984097
0.03502083333,-0.00314307143
0.03504166667,-0.003146460745
0.0350625,-0.003189010546
0.03508333333,-0.003211391624
0.03510416667,-0.003224575892
0.035125,-0.003241086844
0.03514583333,-0.003285527462
0.03516666667,-0.003278828692
0.0351875,-0.003303566948
0.03520833333,-0.003288499312
0.03522916667,-0.003294656286
0.03525,-0.003250283422
0.03527083333,-0.003265861422
0.03529166667,-0.003246982582
0.0353125,-0.003235859796
0.03533333333,-0.003227568232
0.03535416667,-0.003261854406
0.035375,-0.003303325269
0.03539583333,-0.003333462635
0.03541666667,-0.003383194795
0.0354375,-0.003393669147
0.03545833333,-0.003466713708
0.03547916667,-0.00348940026
0.0355,-0.003547700355
0.03552083333,-0.003561452031
0.03554166667,-0.003580887569
0.0355625,-0.003563613864
0.03558333333,-0.003586606355
0.03560416667,-0.003626110265
0.035625,-0.003689625068
0.03564583333,-0.003630408086
0.03566666667,-0.003696513129
0.0356875,-0.003686279058
0.03570833333,-0.003684754018
0.03572916667,-0.003655460197
0.03575,-0.003650331171
0.03577083333,-0.003583530895
0.03579166667,-0.003584139515
0.0358125,-0.003509559669
0.03583333333,-0.003489337629
0.03585416667,-0.003374604974
0.035875,-0.003391281236
0.03589583333,-0.003346086014
0.03591666667,-0.003325021127
0.0359375,-0.00328596984
0.03595833333,-0.0033191822
0.03597916667,-0.00333659607
0.036,-0.003309105756
0.03602083333,-0.003327335231
0.03604166667,-0.003343139077
0.0360625,-0.003384098411
0.03608333333,-0.003355291206
0.03610416667,-0.003419714747
0.036125,-0.003393514315
0.03614583333,-0.003357312642
0.03616666667,-0.003366953228
0.0361875,-0.00337388576
0.03620833333,-0.003288393375
0.03622916667,-0.003283166094
0.03625,-0.003186945803
0.03627083333,-0.003164166352
0.03629166667,-0.003094228916
0.0363125,-0.003091884777
0.03633333333,-0.003025760874
0.03635416667,-0.002948940033
0.036375,-0.002927193651
0.03639583333,-0.002851218218
0.03641666667,-0.002752256114
0.0364375,-0.00272297929
0.03645833333,-0.002624369226
0.03647916667,-0.002558314009
0.0365,-0.002524300478
0.03652083333,-0.002481508767
0.03654166667,-0.002442447236
0.0365625,-0.002452926012
0.03658333333,-0.002469097963
0.03660416667,-0.002457125345
0.036625,-0.002493586624
0.03664583333,-0.002518359339
0.03666666667,-0.002518282505
0.0366875,-0.0025226078
0.03670833333,-0.002482936718
0.03672916667,-0.002449741354
0.03675,-0.002482427051
0.03677083333,-0.002357902005
0.03679166667,-0.002362158615
0.0368125,-0.002313934499
0.03683333333,-0.002295954153
0.03685416667,-0.002244522795
0.036875,-0.002218204783
0.03689583333,-0.002194917528
0.03691666667,-0.002243283205
0.0369375,-0.002176821465
0.03695833333,-0.002217910253
0.03697916667,-0.002137331991
0.037,-0.002209001686
0.03702083333,-0.002164028119
0.03704166667,-0.002142225159
0.0370625,-0.002084591659
0.03708333333,-0.002044661203
0.03710416667,-0.001920793555
0.037125,-0.001898151706
0.03714583333,-0.001804701984
0.03716666667,-0.001756592421
0.0371875,-0.00163355004
0.03720833333,-0.001564166159
0.03722916667,-0.001506502973
0.03725,-0.001540532685
0.03727083333,-0.001565524028
0.03729166667,-0.001627989463
0.0373125,-0.001548697706
0.03733333333,-0.001606434933
0.03735416667,-0.001526973443
0.037375,-0.001454289304
0.03739583333,-0.001390313613
0.03741666667,-0.001298033283
0.0374375,-0.001138130319
0.03745833333,-0.001041651703
0.03747916667,-0.0008966949536
0.0375,-0.000698074
0.03752083333,-0.0006220937939
0.03754166667,-0.0004647851456
0.0375625,-0.0002894979261
0.03758333333,-9.778862295e-05
0.03760416667,9.619173943e-05
0.037625,0.000332446245
0.03764583333,0.0003869463981
0.03766666667,0.0005671262043
0.0376875,0.0006843134761
0.03770833333,0.000810923113
0.03772916667,0.0008056942024
0.03775,0.0009212208097
0.03777083333,0.0008986303001
0.03779166667,0.0009926918428
0.0378125,0.0009431242943
0.03783333333,0.001002892037
0.03785416667,0.001023426536
0.037875,0.001099020592
0.03789583333,0.00120140682
0.03791666667,0.001363999792
0.0379375,0.001426740084
0.03795833333,0.001552024856
0.03797916667,0.001678555273
0.038,0.001929458929
0.03802083333,0.002035299316
0.03804166667,0.00216568308
0.0380625,0.002302426845
0.03808333333,0.002430066234
0.03810416667,0.002564694732
0.038125,0.002631777897
0.03814583333,0.002713468159
0.03816666667,0.002717405092
0.0381875,0.002767290687
0.03820833333,0.002861391054
0.03822916667,0.002874442376
0.03825,0.002866266994
0.03827083333,0.002881944878
0.03829166667,0.002822692273
0.0383125,0.003035009373
0.03833333333,0.00301516382
0.03835416667,0.003187817056
0.038375,0.003256625962
0.03839583333,0.003503608285
0.03841666667,0.00349932583
0.0384375,0.003681428032
0.03845833333,0.003780412488
0.03847916667,0.003948086873
0.0385,0.003969046753
0.03852083333,0.00411055563
0.03854166667,0.004128226079
0.0385625,0.004245435819
0.03858333333,0.004315573722
0.03860416667,0.004479876254
0.038625,0.00448137382
0.03864583333,0.004565702286
0.03866666667,0.004639639053
0.0386875,0.004720915575
0.03870833333,0.004719429649
0.03872916667,0.004820599686
0.03875,0.004841702059
0.03877083333,0.004867963959
0.03879166667,0.004826072603
0.0388125,0.004834275227
0.03883333333,0.004778541159
0.03885416667,0.004788078368
0.038875,0.004796421155
0.03889583333,0.004795494489
0.03891666667,0.00482575316
0.0389375,0.004805816337
0.03895833333,0.004897886887
0.03897916667,0.004897308536
0.039,0.005035484675
0.03902083333,0.005068157334
0.03904166667,0.005121105351
0.0390625,0.005188527517
0.03908333333,0.005227809306
0.03910416667,0.005185011774
0.039125,0.005266683176
0.03914583333,0.005227361806
0.03916666667,0.0053254636
0.0391875,0.005274936091
0.03920833333,0.005249612965
0.03922916667,0.005282084458
0.03925,0.005367832258
0.03927083333,0.005298333708
0.03929166667,0.005500215106
0.0393125,0.005547129549
0.03933333333,0.00568514131
0.03935416667,0.005721886642
0.039375,0.00571837835
0.03939583333,0.005886288825
0.03941666667,0.006018569227
0.0394375,0.005958106834
0.03945833333,0.006099085324
0.03947916667,0.006166552193
0.0395,0.006244458724
0.03952083333,0.006393762771
0.03954166667,0.006516856141
0.0395625,0.006593450904
0.03958333333,0.006678984966
0.03960416667,0.006699522026
0.039625,0.00676001329
0.03964583333,0.006832853425
0.03966666667,0.006922651548
0.0396875,0.006916323677
0.03970833333,0.006973789074
0.03972916667,0.00713593699
0.03975,0.007096311077
0.03977083333,0.00720148487
0.03979166667,0.007239473984
0.0398125,0.007349153981
0.03983333333,0.007416947745
0.03985416667,0.007494092919
0.039875,0.007619453594
0.03989583333,0.007733316626
0.03991666667,0.007722800132
0.0399375,0.007796925493
0.03995833333,0.007829012349
0.03997916667,0.007884613238
0.04,0.007946887054
0.04002083333,0.0079554189
0.04004166667,0.00801617559
0.0400625,0.008141869679
0.04008333333,0.008147058077
0.04010416667,0.008205103688
0.040125,0.008261609823
0.04014583333,0.008328253403
0.04016666667,0.00828461349
0.0401875,0.008309426717
0.04020833333,0.008230953477
0.04022916667,0.008256096393
0.04025,0.008246239275
0.04027083333,0.008220143616
0.04029166667,0.008277111687
0.0403125,0.008218022995
0.04033333333,0.008306692354
0.04035416667,0.008359475993
0.040375,0.008458798751
0.04039583333,0.008497229777
0.04041666667,0.008566984907
0.0404375,0.008605852723
0.04045833333,0.008782044053
0.04047916667,0.008824326098
0.0405,0.008947951719
0.04052083333,0.009013676085
0.04054166667,0.009058449417
0.0405625,0.009103576653
0.04058333333,0.009133968502
0.04060416667,0.009171620943
0.040625,0.009195434861
0.04064583333,0.009164514951
0.04066666667,0.009145966731
0.0406875,0.009089260362
0.04070833333,0.009108794853
0.04072916667,0.009061174467
0.04075,0.009035523981
0.04077083333,0.008910230361
0.04079166667,0.008908883668
0.0408125,0.008889432997
0.04083333333,0.008883913979
0.04085416667,0.008880764246
0.040875,0.008915710263
0.04089583333,0.008994337171
0.04091666667,0.00896272622
0.0409375,0.008931779303
0.04095833333,0.008914876729
0.04097916667,0.008934787475
0.041,0.008943851106
0.04102083333,0.008849870414
0.04104166667,0.008792889304
0.0410625,0.008669890463
0.04108333333,0.008601167239
0.04110416667,0.008516518399
0.041125,0.008514977992
0.04114583333,0.008545397781
0.04116666667,0.008536322042
0.0411875,0.008565790951
0.04120833333,0.008596184663
0.04122916667,0.008686974645
0.04125,0.008713796735
0.04127083333,0.008809599094
0.04129166667,0.008846695535
0.0413125,0.008970594965
0.04133333333,0.009058331139
0.04135416667,0.009133638814
0.041375,0.009192372672
0.04139583333,0.009247074835
0.04141666667,0.009230835363
0.0414375,0.00926392246
0.04145833333,0.009328261018
0.04147916667,0.009374433197
0.0415,0.009382534772
0.04152083333,0.009379885159
0.04154166667,0.009432577528
0.0415625,0.009515642188
0.04158333333,0.009616577998
0.04160416667,0.009757310152
0.041625,0.009875063784
0.04164583333,0.009884198196
0.04166666667,0.009923764504
0.0416875,0.009935259819
0.04170833333,0.009986465797
0.04172916667,0.009948750958
0.04175,0.009926036
0.04177083333,0.009796639904
0.04179166667,0.009776874445
0.0418125,0.009742420167
0.04183333333,0.009689698927
0.04185416667,0.009625171311
0.041875,0.009594594128
0.04189583333,0.009588338435
0.04191666667,0.009558102116
0.0419375,0.009562328458
0.04195833333,0.009578852914
0.04197916667,0.009548536502
0.042,0.009661224671
0.04202083333,0.009691725485
0.04204166667,0.009666632861
0.0420625,0.009614909999
0.04208333333,0.009575930424
0.04210416667,0.009460975416
0.042125,0.009397803806
0.04214583333,0.009413008578
0.04216666667,0.009432361461
0.0421875,0.009474764578
0.04220833333,0.009472943842
0.04222916667,0.009508957155
0.04225,0.009518519044
0.04227083333,0.009620747529
0.04229166667,0.009644362144
0.0423125,0.009729011916
0.04233333333,0.009794611484
0.04235416667,0.009828260168
0.042375,0.009848479182
0.04239583333,0.009974646382
0.04241666667,0.01010208949
0.0424375,0.01011700369
0.04245833333,0.01017796621
0.04247916667,0.01022680476
0.0425,0.01021201909
0.04252083333,0.0103281578
0.04254166667,0.01035072375
0.0425625,0.01039568335
0.04258333333,0.01037286781
0.04260416667,0.01044675056
0.042625,0.01042537577
0.04264583333,0.01042567939
0.04266666667,0.01042857673
0.0426875,0.01044886
0.04270833333,0.01053939387
0.04272916667,0.01061117835
0.04275,0.0107715847
0.04277083333,0.01088409312
0.04279166667,0.01099959202
0.0428125,0.01110452972
0.04283333333,0.01120724995
0.04285416667,0.01126010902
0.042875,0.01130020991
0.04289583333,0.01134199277
0.04291666667,0.01140112337
0.0429375,0.01148045994
0.04295833333,0.01152143255
0.04297916667,0.011552535
0.043,0.01159036905
0.04302083333,0.01161364466
0.04304166667,0.01160798594
0.0430625,0.0115812514
0.04308333333,0.01157091185
0.04310416667,0.01147943363
0.043125,0.01142544579
0.04314583333,0.01133455057
0.04316666667,0.01126038283
0.0431875,0.01119540911
0.04320833333,0.01110234857
0.04322916667,0.01103201322
0.04325,0.01105263364
0.04327083333,0.01102798525
0.04329166667,0.01103673503
0.0433125,0.01104752906
0.04333333333,0.01097125746
0.04335416667,0.01104879286
0.043375,0.01104663406
0.04339583333,0.01115539297
0.04341666667,0.01117778011
0.0434375,0.01119976398
0.04345833333,0.01127451751
0.04347916667,0.01120419614
0.0435,0.01132376865
0.04352083333,0.01151787676
0.04354166667,0.01156294812
0.0435625,0.01170657482
0.04358333333,0.01171257626
0.04360416667,0.01183040999
0.043625,0.01179242413
0.04364583333,0.01181546785
0.04366666667,0.01176283322
0.0436875,0.01172542945
0.04370833333,0.01170560997
0.04372916667,0.01157602388
0.04375,0.01154355612
0.04377083333,0.01153783035
0.04379166667,0.01143916603
0.0438125,0.01148900669
0.04383333333,0.01141665224
0.04385416667,0.01142226625
0.043875,0.01131017134
0.04389583333,0.01131715626
0.04391666667,0.01125191618
0.0439375,0.01124609355
0.04395833333,0.01127481274
0.04397916667,0.01129968092
0.044,0.01130165718
0.04402083333,0.01135758124
0.04404166667,0.01139770448
0.0440625,0.01150041446
0.04408333333,0.01158034336
0.04410416667,0.01166097075
0.044125,0.01169564575
0.04414583333,0.01181348227
0.04416666667,0.01198122185
0.0441875,0.01206241921
0.04420833333,0.0121569708
0.04422916667,0.0122159645
0.04425,0.01234913431
0.04427083333,0.01233186387
0.04429166667,0.01249744557
0.0443125,0.01251763199
0.04433333333,0.01261343528
0.04435416667,0.01277525257
0.044375,0.01290077344
0.04439583333,0.01310983114
0.04441666667,0.01329203043
0.0444375,0.01340460312
0.04445833333,0.01358000562
0.04447916667,0.01364405081
0.0445,0.01378927846
0.04452083333,0.01389488112
0.04454166667,0.01400593203
0.0445625,0.01408247557
0.04458333333,0.01422968786
0.04460416667,0.01436215919
0.044625,0.01448622346
0.04464583333,0.01459305733
0.04466666667,0.01467454527
0.0446875,0.01472747792
0.04470833333,0.01487402711
0.04472916667,0.01499196328
0.04475,0.01518260781
0.04477083333,0.01531950571
0.04479166667,0.01548732165
0.0448125,0.01560436003
0.04483333333,0.01567794755
0.04485416667,0.01577378064
0.044875,0.01580484957
0.04489583333,0.01580038108
0.04491666667,0.0158623457
0.0449375,0.01591392979
0.04495833333,0.01593885757
0.04497916667,0.01598368026
0.045,0.01597356796
0.04502083333,0.01606424712
0.04504166667,0.01615298539
0.0450625,0.01620413922
0.04508333333,0.01628368348
0.04510416667,0.01636676304
0.045125,0.01633275114
0.04514583333,0.01639505103
0.04516666667,0.01632397436
0.0451875,0.016391946
0.04520833333,0.01641620509
0.04522916667,0.01652837358
0.04525,0.01652397029
0.04527083333,0.01660878025
0.04529166667,0.01664200053
0.0453125,0.01670928672
0.04533333333,0.01672756113
0.04535416667,0.01689166762
0.045375,0.01692000404
0.04539583333,0.01701546088
0.04541666667,0.0170003362
0.0454375,0.01720582135
0.04545833333,0.01722228155
0.04547916667,0.01731187664
0.0455,0.01725242473
0.04552083333,0.01728532277
0.04554166667,0.0173347313
0.0455625,0.01722810045
0.04558333333,0.01718930341
0.04560416667,0.01706404239
0.045625,0.0169618167
0.04564583333,0.01690471545
0.04566666667,0.01681064442
0.0456875,0.01674979553
0.04570833333,0.01674837433
0.04572916667,0.01664259657
0.04575,0.01657742634
0.04577083333,0.01646554656
0.04579166667,0.0164600797
0.0458125,0.01631470956
0.04583333333,0.01629278995
0.04585416667,0.01621817984
0.045875,0.01622611284
0.04589583333,0.01612666622
0.04591666667,0.01619376242
0.0459375,0.01621336862
0.04595833333,0.01620997488
0.04597916667,0.0161707215
0.046,0.01621837728
0.04602083333,0.01619580947
0.04604166667,0.01625256613
0.0460625,0.01630661637
0.04608333333,0.01652716286
0.04610416667,0.01675074361
0.046125,0.01696304977
0.04614583333,0.01712474413
0.04616666667,0.01735080779
0.0461875,0.01737173088
0.04620833333,0.01749658212
0.04622916667,0.01749228872
0.04625,0.01761004329
0.04627083333,0.01769512892
0.04629166667,0.01776183769
0.0463125,0.01786566339
0.04633333333,0.01797318459
0.04635416667,0.01810497604
0.046375,0.01827098802
0.04639583333,0.01843583584
0.04641666667,0.01842476614
0.0464375,0.01858962327
0.04645833333,0.01852035336
0.04647916667,0.01859469339
0.0465,0.0185978841
0.04652083333,0.01865521818
0.04654166667,0.01877598092
0.0465625,0.0187018197
0.04658333333,0.01882290095
0.04660416667,0.01880611107
0.046625,0.01882870682
0.04664583333,0.01894798502
0.04666666667,0.01891670935
0.0466875,0.01898687892
0.04670833333,0.01891111024
0.04672916667,0.01902058348
0.04675,0.01903385483
0.04677083333,0.01904644445
0.04679166667,0.01906519756
0.0468125,0.01901726797
0.04683333333,0.0190158654
0.04685416667,0.0191575624
0.046875,0.01923689246
0.04689583333,0.01933214068
0.04691666667,0.01938544959
0.0469375,0.01945914701
0.04695833333,0.0194866322
0.04697916667,0.01959800906
0.047,0.01960463263
0.04702083333,0.01959745586
0.04704166667,0.01954459213
0.0470625,0.01944550499
0.04708333333,0.01939962059
0.04710416667,0.01933388971
0.047125,0.01929020323
0.04714583333,0.01924573816
0.04716666667,0.01929708757
0.0471875,0.01921713166
0.04720833333,0.01914489828
0.04722916667,0.01893401891
0.04725,0.0188329611
0.04727083333,0.01867814548
0.04729166667,0.0185378585
0.0473125,0.01848879084
0.04733333333,0.01842106692
0.04735416667,0.01826732233
0.047375,0.01832702756
0.04739583333,0.01821372099
0.04741666667,0.01835755445
0.0474375,0.01810206845
0.04745833333,0.01806955412
0.04747916667,0.0181202665
0.0475,0.0179961212
0.04752083333,0.01786120795
0.04754166667,0.01775295846
0.0475625,0.01756559499
0.04758333333,0.01737081818
0.04760416667,0.01725084707
0.047625,0.01716268808
0.04764583333,0.01697006077
0.04766666667,0.01699644327
0.0476875,0.01670510881
0.04770833333,0.01673385128
0.04772916667,0.01657846197
0.04775,0.01653539762
0.04777083333,0.0164329987
0.04779166667,0.01621605456
0.0478125,0.01607528515
0.04783333333,0.01589458808
0.04785416667,0.01583547331
0.047875,0.01576370932
0.04789583333,0.01565617323
0.04791666667,0.01552444231
0.0479375,0.0154467104
0.04795833333,0.01532415766
0.04797916667,0.01524394099
0.048,0.01506874617
0.04802083333,0.01502649114
0.04804166667,0.01487612166
0.0480625,0.01482280158
0.04808333333,0.0146742668
0.04810416667,0.01458903681
0.048125,0.01440014224
0.04814583333,0.01436809637
0.04816666667,0.01404083706
0.0481875,0.01392004639
0.04820833333,0.013750338
0.04822916667,0.01361057442
0.04825,0.01343639381
0.04827083333,0.01334175002
0.04829166667,0.01317112893
0.0483125,0.01305942051
0.04833333333,0.01283867843
0.04835416667,0.01270574145
0.048375,0.0125788115
0.04839583333,0.01241016667
0.04841666667,0.01229561493
0.0484375,0.01226146519
0.04845833333,0.01214918401
0.04847916667,0.01220421027
0.0485,0.01186198741
0.04852083333,0.01185768284
0.04854166667,0.01193949766
0.0485625,0.01171717513
0.04858333333,0.01188435033
0.04860416667,0.01157296263
0.048625,0.01163559873
0.04864583333,0.0117032323
0.04866666667,0.01159547642
0.0486875,0.011669687
0.04870833333,0.01156197302
0.04872916667,0.01148013677
0.04875,0.01140628383
0.04877083333,0.01129125897
0.04879166667,0.01117296796
0.0488125,0.01105022896
0.04883333333,0.01097842399
0.04885416667,0.01080618054
0.048875,0.0108660711
0.04889583333,0.01072559413
0.04891666667,0.01065582782
0.0489375,0.01053800248
0.04895833333,0.0106078051
0.04897916667,0.01053922344
0.049,0.01055142004
0.04902083333,0.01043649483
0.04904166667,0.01043465175
0.0490625,0.01036264189
0.04908333333,0.0102826599
0.04910416667,0.01014304347
0.049125,0.0100403484
0.04914583333,0.009823463857
0.04916666667,0.009683203883
0.0491875,0.009549953975
0.04920833333,0.009511105716
0.04922916667,0.009385132231
0.04925,0.009341075085
0.04927083333,0.009268163703
0.04929166667,0.009185884148
0.0493125,0.009104879573
0.04933333333,0.009017206728
0.04935416667,0.008811885491
0.049375,0.008760388009
0.04939583333,0.008554427885
0.04941666667,0.008279757574
0.0494375,0.008088023402
0.04945833333,0.007910918444
0.04947916667,0.007700098213
0.0495,0.007396175526
0.04952083333,0.0071535795
0.04954166667,0.007004244719
0.0495625,0.006766301114
0.04958333333,0.006472453475
0.04960416667,0.006357798353
0.049625,0.006067165639
0.04964583333,0.005799466278
0.04966666667,0.005503396969
0.0496875,0.005208126269
0.04970833333,0.004807584453
0.04972916667,0.004496247042
0.04975,0.004194635898
0.04977083333,0.00414188439
0.04979166667,0.003840580583
0.0498125,0.003689734265
0.04983333333,0.003594286274
0.04985416667,0.003451470053
0.049875,0.003369054757
0.04989583333,0.003301984165
0.04991666667,0.003136968939
0.0499375,0.00294908951
0.04995833333,0.002738815732
0.04997916667,0.002496508881
0.05,0.002333129058
0.05002083333,0.002117973054
0.05004166667,0.001916133217
0.0500625,0.001783235115
0.05008333333,0.001660037437
0.05010416667,0.00162776676
0.050125,0.001448792638
0.05014583333,0.001393088489
0.05016666667,0.00131956907
0.0501875,0.001171996933
0.05020833333,0.001176982769
0.05022916667,0.001081950148
0.05025,0.0009895514231
0.05027083333,0.0008915639482
0.05029166667,0.000790830527
0.0503125,0.0006461248267
0.05033333333,0.000580051099
0.05035416667,0.0005394420004
0.050375,0.0004558065848
0.05039583333,0.0004833254789
0.05041666667,0.0005361253279
0.0504375,0.0005299390177
0.05045833333,0.000668521272
0.05047916667,0.0006745848805
0.0505,0.0006931285607
0.05052083333,0.000592142751
0.05054166667,0.0006261302042
0.0505625,0.0006603444926
0.05058333333,0.0005422951072
0.05060416667,0.0005193778779
0.050625,0.00044102635
0.05064583333,0.0003940774186
0.05066666667,0.000299779349
0.0506875,0.0001671146019
0.05070833333,-8.098919352e-05
0.05072916667,-0.0002074582735
0.05075,-0.0004116559285
0.05077083333,-0.0006536158035
0.05079166667,-0.0008540989365
0.0508125,-0.001020112657
0.05083333333,-0.001179511659
0.05085416667,-0.00136586267
0.050875,-0.00148981635
0.05089583333,-0.001635026885
0.05091666667,-0.001799390418
0.0509375,-0.002002945635
0.05095833333,-0.002272065729
0.05097916667,-0.002397298347
0.051,-0.002603458241
0.05102083333,-0.002671993338
0.05104166667,-0.002840172732
0.0510625,-0.002937461482
0.05108333333,-0.003084598109
0.05110416667,-0.003219491104
0.051125,-0.003250748385
0.05114583333,-0.003325154772
0.05116666667,-0.003354917513
0.0511875,-0.003274593735
0.05120833333,-0.003308574203
0.05122916667,-0.003338055918
0.05125,-0.003348009428
0.05127083333,-0.003335930873
0.05129166667,-0.003404245479
0.0513125,-0.003475037171
0.05133333333,-0.003554216586
0.05135416667,-0.003590548178
0.051375,-0.003682005452
0.05139583333,-0.003716289531
0.05141666667,-0.003737977706
0.0514375,-0.003829383291
0.05145833333,-0.003848883556
0.05147916667,-0.00382592855
0.0515,-0.003784704022
0.05152083333,-0.00377443363
0.05154166667,-0.003737579565
0.0515625,-0.003785314271
0.05158333333,-0.003884000238
0.05160416667,-0.004032034427
0.051625,-0.004144903272
0.05164583333,-0.004248328041
0.05166666667,-0.004319708794
0.0516875,-0.004506387282
0.05170833333,-0.004639011808
0.05172916667,-0.004719370976
0.05175,-0.004756014794
0.05177083333,-0.004765738733
0.05179166667,-0.004848493729
0.0518125,-0.004906928167
0.05183333333,-0.004957871046
0.05185416667,-0.004995554686
0.051875,-0.004928318318
0.05189583333,-0.004984098952
0.05191666667,-0.004958776291
0.0519375,-0.005061076023
0.05195833333,-0.005089248996
0.05197916667,-0.005179358181
0.052,-0.005229438655
0.05202083333,-0.005259198602
0.05204166667,-0.005239114631
0.0520625,-0.005286446307
0.05208333333,-0.005248860456
0.05210416667,-0.005305868108
0.052125,-0.005304590333
0.05214583333,-0.005338974297
0.05216666667,-0.005411081482
0.0521875,-0.005438051187
0.05220833333,-0.005553539842
0.05222916667,-0.005602132529
0.05225,-0.005752278026
0.05227083333,-0.005771282129
0.05229166667,-0.005851230118
0.0523125,-0.00593445776
0.05233333333,-0.005919604562
0.05235416667,-0.006022727583
0.052375,-0.006126526743
0.05239583333,-0.006225205958
0.05241666667,-0.006368826609
0.0524375,-0.006460676435
0.05245833333,-0.006546902005
0.05247916667,-0.006614104845
0.0525,-0.006688239984
0.05252083333,-0.006679805927
0.05254166667,-0.006807966623
0.0525625,-0.006683098618
0.05258333333,-0.006706936285
0.05260416667,-0.006727446802
0.052625,-0.006653881166
0.05264583333,-0.006744669285
0.05266666667,-0.006846339907
0.0526875,-0.006823444739
0.05270833333,-0.00684210984
0.05272916667,-0.006774254609
0.05275,-0.006782270037
0.05277083333,-0.006854220293
0.05279166667,-0.006848420948
0.0528125,-0.006843982264
0.05283333333,-0.006912473589
0.05285416667,-0.006818959489
0.052875,-0.006793551613
0.05289583333,-0.006718205288
0.05291666667,-0.00669397926
0.0529375,-0.006629143842
0.05295833333,-0.006605759729
0.05297916667,-0.006675440818
0.053,-0.006684328429
0.05302083333,-0.006672068965
0.05304166667,-0.006675366778
0.0530625,-0.006705453619
0.05308333333,-0.006736306939
0.05310416667,-0.006880956236
0.053125,-0.006905580871
0.05314583333,-0.006957931444
0.05316666667,-0.007033780217
0.0531875,-0.006971515249
0.05320833333,-0.007120096125
0.05322916667,-0.007217126433
0.05325,-0.007309165783
0.05327083333,-0.007385773119
0.05329166667,-0.007444491144
0.0533125,-0.007528664544
0.05333333333,-0.007552127354
0.05335416667,-0.007700452115
0.053375,-0.007736003492
0.05339583333,-0.007860600948
0.05341666667,-0.007874188945
0.0534375,-0.00791389402
0.05345833333,-0.008046558127
0.05347916667,-0.008095290512
0.0535,-0.008169835433
0.05352083333,-0.00815315824
0.05354166667,-0.008103045635
0.0535625,-0.008068019524
0.05358333333,-0.008114256896
0.05360416667,-0.008108939044
0.053625,-0.008186414838
0.05364583333,-0.008177594282
0.05366666667,-0.008210587315
0.0536875,-0.008298392408
0.05370833333,-0.008311030455
0.05372916667,-0.008254614659
0.05375,-0.008313809521
0.05377083333,-0.008283005096
0.05379166667,-0.008428466506
0.0538125,-0.008391482756
0.05383333333,-0.008378339931
0.05385416667,-0.008446624503
0.053875,-0.008476763032
0.05389583333,-0.008453973569
0.05391666667,-0.008418088779
0.0539375,-0.008344418369
0.05395833333,-0.00832997635
0.05397916667,-0.008318942972
0.054,-0.008344851434
0.05402083333,-0.008357161656
0.05404166667,-0.008380105719
0.0540625,-0.008391902782
0.05408333333,-0.0084745856
0.05410416667,-0.008493266068
0.054125,-0.00851633586
0.05414583333,-0.008444851264
0.05416666667,-0.008532067761
0.0541875,-0.008546712808
0.05420833333,-0.008479671553
0.05422916667,-0.008469031192
0.05425,-0.00843689777
0.05427083333,-0.008392601274
0.05429166667,-0.008386374451
0.0543125,-0.008378219791
0.05433333333,-0.008357245475
0.05435416667,-0.008343132213
0.054375,-0.00826199539
0.05439583333,-0.008269243874
0.05441666667,-0.008242360316
0.0544375,-0.0082514612
0.05445833333,-0.008248369209
0.05447916667,-0.008306585252
0.0545,-0.008300879039
0.05452083333,-0.008295223117
0.05454166667,-0.008361223154
0.0545625,-0.008381614462
0.05458333333,-0.008446095511
0.05460416667,-0.008606855758
0.054625,-0.008597539738
0.05464583333,-0.00875533279
0.05466666667,-0.008781832643
0.0546875,-0.008862181567
0.05470833333,-0.008970969357
0.05472916667,-0.009080260061
0.05475,-0.009132064879
0.05477083333,-0.009197006933
0.05479166667,-0.009247425944
0.0548125,-0.009299254045
0.05483333333,-0.009247259237
0.05485416667,-0.009204576723
0.054875,-0.009129484184
0.05489583333,-0.009223569185
0.05491666667,-0.009112709202
0.0549375,-0.009189019911
0.05495833333,-0.009217626415
0.05497916667,-0.009138752706
0.055,-0.009128743783
0.05502083333,-0.009043712169
0.05504166667,-0.008946085349
0.0550625,-0.008859006688
0.05508333333,-0.008754160255
0.05510416667,-0.008653753437
0.055125,-0.008570488542
0.05514583333,-0.008467294276
0.05516666667,-0.008360704407
0.0551875,-0.008216246963
0.05520833333,-0.008122517727
0.05522916667,-0.008013147861
0.05525,-0.007838161662
0.05527083333,-0.007680292241
0.05529166667,-0.007595599163
0.0553125,-0.007408264559
0.05533333333,-0.00738009857
0.05535416667,-0.007288394962
0.055375,-0.007207574788
0.05539583333,-0.00709847454
0.05541666667,-0.006918560714
0.0554375,-0.006787355058
0.05545833333,-0.006624890026
0.05547916667,-0.006280316971
0.0555,-0.006143003237
0.05552083333,-0.005995043088
0.05554166667,-0.005843715277
0.0555625,-0.005541003309
0.05558333333,-0.005401199684
0.05560416667,-0.005178091582
0.055625,-0.004928167909
0.05564583333,-0.004667570814
0.05566666667,-0.004477235489
0.0556875,-0.004175150767
0.05570833333,-0.003827064764
0.05572916667,-0.003558765166
0.05575,-0.003305726219
0.05577083333,-0.00307195913
0.05579166667,-0.002940734383
0.0558125,-0.002797646215
0.05583333333,-0.002731448039
0.05585416667,-0.002648511669
0.055875,-0.002453780267
0.05589583333,-0.002276794752
0.05591666667,-0.002067109337
0.0559375,-0.001996116014
0.05595833333,-0.001752224984
0.05597916667,-0.001582483063
0.056,-0.001461443957
0.05602083333,-0.001277010888
0.05604166667,-0.001129091484
0.0560625,-0.0009677989874
0.05608333333,-0.0008079362451
0.05610416667,-0.0007173218764
0.056125,-0.0005001801765
0.05614583333,-0.0003290236928
0.05616666667,-0.0001137044746
0.0561875,1.286558108e-05
0.05620833333,0.0001756995916
0.05622916667,0.0001809503301
0.05625,0.0003073947737
0.05627083333,0.0004095257027
0.05629166667,0.0005059335963
0.0563125,0.0005153261009
0.05633333333,0.0006654237513
0.05635416667,0.0006389860646
0.056375,0.0006740830722
0.05639583333,0.0007237982354
0.05641666667,0.0006993426941
0.0564375,0.0006660116487
0.05645833333,0.0006985899527
0.05647916667,0.0006735309726
0.0565,0.0006651024451
0.05652083333,0.000677524542
0.05654166667,0.0006117557059
0.0565625,0.000603296794
0.05658333333,0.0005566658219
0.05660416667,0.0004662141437
0.056625,0.0004201980191
0.05664583333,0.0003103872295
0.05666666667,0.0002042697161
0.0566875,0.0001158431987
0.05670833333,-1.688092016e-05
0.05672916667,5.254766438e-05
0.05675,-1.756567508e-05
0.05677083333,1.180253457e-05
0.05679166667,-2.57473439e-05
0.0568125,-9.704875993e-05
0.05683333333,-0.0001677131513
0.05685416667,-0.000282522582
0.056875,-0.0003990948317
0.05689583333,-0.000389036315
0.05691666667,-0.000492730469
0.0569375,-0.000457002956
0.05695833333,-0.0005084281438
0.05697916667,-0.0004243596341
0.057,-0.0004562344984
0.05702083333,-0.0003433225211
0.05704166667,-0.0002690519905
0.0570625,-0.0002293030848
0.05708333333,-0.0001543542021
0.05710416667,-5.805952242e-05
0.057125,-6.223429227e-05
0.05714583333,5.437468644e-05
0.05716666667,0.0001096109627
0.0571875,0.0001187947346
0.05720833333,0.0001810474787
0.05722916667,0.0003008414642
0.05725,0.0002622225438
0.05727083333,0.0003746571601
0.05729166667,0.0002571862424
0.0573125,0.0004130634479
0.05733333333,0.0004319824511
0.05735416667,0.000521226495
0.057375,0.0006970234681
0.05739583333,0.0005899660173
0.05741666667,0.0007028351538
0.0574375,0.0007051446009
0.05745833333,0.0008197588613
0.05747916667,0.001130136894
0.0575,0.001093056053
0.05752083333,0.001308369567
0.05754166667,0.001402432099
0.0575625,0.001515769633
0.05758333333,0.00166986289
0.05760416667,0.001803918392
0.057625,0.002084636129
0.05764583333,0.002222305629
0.05766666667,0.002400125377
0.0576875,0.002444121987
0.05770833333,0.002819746034
0.05772916667,0.002891893499
0.05775,0.003119113622
0.05777083333,0.003155774437
0.05779166667,0.003400378395
0.0578125,0.003412266029
0.05783333333,0.003510641167
0.05785416667,0.003475753358
0.057875,0.00358504965
0.05789583333,0.003671133658
0.05791666667,0.00384042575
0.0579375,0.003910031635
0.05795833333,0.004049949814
0.05797916667,0.004167481791
0.058,0.004330949858
0.05802083333,0.004401158076
0.05804166667,0.004547286779
0.0580625,0.004642079584
0.05808333333,0.004839552566
0.05810416667,0.004951683804
0.058125,0.005046427716
0.05814583333,0.005155346822
0.05816666667,0.005277174991
0.0581875,0.005373327527
0.05820833333,0.005432012491
0.05822916667,0.005542726256
0.05825,0.005455960054
0.05827083333,0.005527212285
0.05829166667,0.00542329438
0.0583125,0.005603635218
0.05833333333,0.005709732417
0.05835416667,0.005499550141
0.058375,0.00556191057
0.05839583333,0.00579538662
0.05841666667,0.005558695178
0.0584375,0.005817487836
0.05845833333,0.005982725415
0.05847916667,0.006010967307
0.0585,0.006214338355
0.05852083333,0.006233972963
0.05854166667,0.006467726547
0.0585625,0.006507776212
0.05858333333,0.006531369407
0.05860416667,0.006761170924
0.058625,0.006616645958
0.05864583333,0.006732806098
0.05866666667,0.006738116499
0.0586875,0.006821967661
0.05870833333,0.006844593678
0.05872916667,0.006851736456
0.05875,0.00691413926
0.05877083333,0.006919745356
0.05879166667,0.006842581555
0.0588125,0.00683454331
0.05883333333,0.006916525308
0.05885416667,0.006999564823
0.058875,0.007082735188
0.05889583333,0.00714469282
0.05891666667,0.007178690284
0.0589375,0.007226129528
0.05895833333,0.007220023312
0.05897916667,0.007215255871
0.059,0.007215707097
0.05902083333,0.007291672286
0.05904166667,0.007356340531
0.0590625,0.007329114247
0.05908333333,0.007337942254
0.05910416667,0.007229554467
0.059125,0.00730634667
0.05914583333,0.007279523648
0.05916666667,0.007421545219
0.0591875,0.007443575654
0.05920833333,0.007469663396
0.05922916667,0.00765879266
0.05925,0.007704428397
0.05927083333,0.007844904438
0.05929166667,0.008041831665
0.0593125,0.008006037213
0.05933333333,0.008358045481
0.05935416667,0.008345121518
0.059375,0.008585029282
0.05939583333,0.008800305426
0.05941666667,0.008822207339
0.0594375,0.008915101178
0.05945833333,0.009072559886
0.05947916667,0.009178641252
0.0595,0.009254974313
0.05952083333,0.009259889834
0.05954166667,0.009364143945
0.0595625,0.009490369819
0.05958333333,0.009631870314
0.05960416667,0.00977269467
0.059625,0.009928977117
0.05964583333,0.01014364325
0.05966666667,0.01028619707
0.0596875,0.01049394812
0.05970833333,0.01063466165
0.05972916667,0.01076485962
0.05975,0.01092319749
0.05977083333,0.01111016888
0.05979166667,0.01124526467
0.0598125,0.01148869935
0.05983333333,0.01157625765
0.05985416667,0.01175767649
0.059875,0.01190340891
0.05989583333,0.01212142035
0.05991666667,0.01229554508
0.0599375,0.01249632053
0.05995833333,0.01261056215
0.05997916667,0.01273503806
0.06,0.01279079914
0.06002083333,0.01290043164
0.06004166667,0.01297727972
0.0600625,0.01303115301
0.06008333333,0.01308733504
0.06010416667,0.01325552352
0.060125,0.01336742006
0.06014583333,0.01343723387
0.06016666667,0.01351129171
0.0601875,0.01360161137
0.06020833333,0.01365096681
0.06022916667,0.01374437008
0.06025,0.01378467213
0.06027083333,0.01385524776
0.06029166667,0.01388460025
0.0603125,0.01393180154
0.06033333333,0.01407943014
0.06035416667,0.01403125748
0.060375,0.01407588832
0.06039583333,0.01401206851
0.06041666667,0.01386937499
0.0604375,0.01382489689
0.06045833333,0.01375630777
0.06047916667,0.01368614938
0.0605,0.0137920035
0.06052083333,0.01367642451
0.06054166667,0.01375697274
0.0605625,0.01383303106
0.06058333333,0.01396031119
0.06060416667,0.01401895192
0.060625,0.01406512037
0.06064583333,0.01408113167
0.06066666667,0.01419936959
0.0606875,0.01417580992
0.06070833333,0.01426041499
0.06072916667,0.01415722724
0.06075,0.01412884891
0.06077083333,0.01407173183
0.06079166667,0.01400475577
0.0608125,0.01391618326
0.06083333333,0.01383890584
0.06085416667,0.01379578374
0.060875,0.01371808629
0.06089583333,0.01370585244
0.06091666667,0.01364623569
0.0609375,0.01368168462
0.06095833333,0.01377751119
0.06097916667,0.01374893822
0.061,0.01380322035
0.06102083333,0.01388359722
0.06104166667,0.01397101674
0.0610625,0.01405318175
0.06108333333,0.01411490422
0.06110416667,0.01419971045
0.061125,0.01420638803
0.06114583333,0.01427491102
0.06116666667,0.01426134352
0.0611875,0.01432759129
0.06120833333,0.01439672988
0.06122916667,0.01450859569
0.06125,0.01456252392
0.06127083333,0.01458034851
0.06129166667,0.01458602026
0.0613125,0.01462456398
0.06133333333,0.01471469738
0.06135416667,0.0147247389
0.061375,0.01475581434
0.06139583333,0.01486384775
0.06141666667,0.01490608323
0.0614375,0.01500952523
0.06145833333,0.01504719257
0.06147916667,0.01512481458
0.0615,0.01516960934
0.06152083333,0.01524478942
0.06154166667,0.01536430977
0.0615625,0.01540394686
0.06158333333,0.01539045945
0.06160416667,0.01543505117
0.061625,0.01530877408
0.06164583333,0.0153186135
0.06166666667,0.01545520686
0.0616875,0.0155000966
0.06170833333,0.01559889782
0.06172916667,0.01573524624
0.06175,0.01581392437
0.06177083333,0.01582272723
0.06179166667,0.01589957997
0.0618125,0.01591066644
0.06183333333,0.0159009397
0.06185416667,0.01592024416
0.061875,0.01589629799
0.06189583333,0.01585764624
0.06191666667,0.01588804647
0.0619375,0.01590075903
0.06195833333,0.01596317813
0.06197916667,0.01596917771
0.062,0.01600379311
0.06202083333,0.01614291407
0.06204166667,0.01627041586
0.0620625,0.01639599726
0.06208333333,0.01641143486
0.06210416667,0.0163778998
0.062125,0.01642271504
0.06214583333,0.0164371822
0.06216666667,0.01658878662
0.0621875,0.01654735021
0.06220833333,0.01659481041
0.06222916667,0.01667188853
0.06225,0.01665415242
0.06227083333,0.0167308338
0.06229166667,0.01676585712
0.0623125,0.01680248231
0.06233333333,0.01686190441
0.06235416667,0.01684240624
0.062375,0.01692614332
0.06239583333,0.0169397071
0.06241666667,0.01696848683
0.0624375,0.01691078208
0.06245833333,0.01691756397
0.06247916667,0.01685847342
0.0625,0.01685655676
0.06252083333,0.01682177186
0.06254166667,0.01683712006
0.0625625,0.01679001376
0.06258333333,0.01667563617
0.06260416667,0.01668442413
0.062625,0.01664292999
0.06264583333,0.01663151011
0.06266666667,0.01661527716
0.0626875,0.0166913271
0.06270833333,0.01671917737
0.06272916667,0.01665822975
0.06275,0.01669789664
0.06277083333,0.01674051024
0.06279166667,0.01673830114
0.0628125,0.01675115153
0.06283333333,0.01674384065
0.06285416667,0.01681845076
0.062875,0.01683224365
0.06289583333,0.01690601557
0.06291666667,0.01691684872
0.0629375,0.01688914746
0.06295833333,0.01682512835
0.06297916667,0.01681371219
0.063,0.01686579548
0.06302083333,0.01695145853
0.06304166667,0.01695478894
0.0630625,0.01700415649
0.06308333333,0.01706208661
0.06310416667,0.0170740746
0.063125,0.01707418263
0.06314583333,0.01708796062
0.06316666667,0.01703243889
0.0631875,0.01705764979
0.06320833333,0.01702426188
0.06322916667,0.0170853585
0.06325,0.01706592739
0.06327083333,0.01706344448
0.06329166667,0.01711678691
0.0633125,0.01716665365
0.06333333333,0.01727590151
0.06335416667,0.01731306314
0.063375,0.01747915149
0.06339583333,0.0175984893
0.06341666667,0.01777549461
0.0634375,0.01784902997
0.06345833333,0.01794726402
0.06347916667,0.01806088537
0.0635,0.01807267591
0.06352083333,0.0180437956
0.06354166667,0.01817546412
0.0635625,0.01813067868
0.06358333333,0.01822327636
0.06360416667,0.01819289662
0.063625,0.01828533038
0.06364583333,0.01824033074
0.06366666667,0.01827100664
0.0636875,0.01822908409
0.06370833333,0.01826044172
0.06372916667,0.01837302186
0.06375,0.01846556179
0.06377083333,0.01858995669
0.06379166667,0.01867529377
0.0638125,0.01866104268
0.06383333333,0.0187818855
0.06385416667,0.01887362823
0.063875,0.01903763972
0.06389583333,0.01919193752
0.06391666667,0.01940632053
0.0639375,0.01951785758
0.06395833333,0.01968630217
0.06397916667,0.0197710786
0.064,0.01991828345
0.06402083333,0.02002796158
0.06404166667,0.02016115934
0.0640625,0.02031514794
0.06408333333,0.02046735771
0.06410416667,0.02057819255
0.064125,0.0206843894
0.06414583333,0.02081003226
0.06416666667,0.02095310017
0.0641875,0.02103625238
0.06420833333,0.02123083733
0.06422916667,0.02144066617
0.06425,0.02158195712
0.06427083333,0.02175716124
0.06429166667,0.02187983505
0.0643125,0.02202364802
0.06433333333,0.02212278917
0.06435416667,0.02218532749
0.064375,0.02207197249
0.06439583333,0.02213782631
0.06441666667,0.02219798788
0.0644375,0.02213357016
0.06445833333,0.02214922197
0.06447916667,0.02219923586
0.0645,0.02220709436
0.06452083333,0.02224478498
0.06454166667,0.02222750336
0.0645625,0.02234738693
0.06458333333,0.02233471535
0.06460416667,0.02239745855
0.064625,0.0223296769
0.06464583333,0.02227438241
0.06466666667,0.02226497605
0.0646875,0.02222872525
0.06470833333,0.0222170651
0.06472916667,0.02219252475
0.06475,0.02211999707
0.06477083333,0.02207184024
0.06479166667,0.02204775438
0.0648125,0.02205642313
0.06483333333,0.0219702851
0.06485416667,0.02188792638
0.064875,0.02175593376
0.06489583333,0.02168601193
0.06491666667,0.02158775553
0.0649375,0.02153166011
0.06495833333,0.02153307758
0.06497916667,0.02145336382
0.065,0.02141018584
0.06502083333,0.02131534554
0.06504166667,0.02128965966
0.0650625,0.02117065154
0.06508333333,0.02120607346
0.06510416667,0.02108070254
0.065125,0.02098840661
0.06514583333,0.02084447257
0.06516666667,0.02065423876
0.0651875,0.02046770416
0.06520833333,0.02026204392
0.06522916667,0.02007681504
0.06525,0.02000001632
0.06527083333,0.01976867951
0.06529166667,0.01957931928
0.0653125,0.01941088401
0.06533333333,0.01927297935
0.06535416667,0.01904018223
0.065375,0.01890284754
0.06539583333,0.01870106533
0.06541666667,0.01859541237
0.0654375,0.01846261695
0.06545833333,0.01829395629
0.06547916667,0.01814499311
0.0655,0.01794481464
0.06552083333,0.01776446961
0.06554166667,0.01758977957
0.0655625,0.01732786559
0.06558333333,0.01707102731
0.06560416667,0.01677110419
0.065625,0.01656917483
0.06564583333,0.01636774652
0.06566666667,0.01612857729
0.0656875,0.01602823846
0.06570833333,0.01573508419
0.06572916667,0.01559717022
0.06575,0.01547022164
0.06577083333,0.0152759878
0.06579166667,0.01509400271
0.0658125,0.01491223462
0.06583333333,0.01470619813
0.06585416667,0.01461475622
0.065875,0.01442358736
0.06589583333,0.01432314049
0.06591666667,0.01422423124
0.0659375,0.01414256543
0.06595833333,0.01395348832
0.06597916667,0.01377742086
0.066,0.01357150637
0.06602083333,0.01334966905
0.06604166667,0.01325783599
0.0660625,0.01314937044
0.06608333333,0.01304151583
0.06610416667,0.0129317604
0.066125,0.0127491001
0.06614583333,0.01258712076
0.06616666667,0.01236969605
0.0661875,0.01219338924
0.06620833333,0.01199916005
0.06622916667,0.01177575346
0.06625,0.01160524692
0.06627083333,0.01138549391
0.06629166667,0.01119553857
0.0663125,0.01102659665
0.06633333333,0.01094553526
0.06635416667,0.01075766515
0.066375,0.01065611467
0.06639583333,0.01059147343
0.06641666667,0.010526984
0.0664375,0.01040536072
0.06645833333,0.01039365213
0.06647916667,0.01024693809
0.0665,0.01013454795
0.06652083333,0.009952701628
0.06654166667,0.009961282834
0.0665625,0.009857313707
0.06658333333,0.009784789756
0.06660416667,0.009730173275
0.066625,0.009658499621
0.06664583333,0.009584969841
0.06666666667,0.009553428739
0.0666875,0.009441743605
0.06670833333,0.009390806779
0.06672916667,0.0092289038
0.06675,0.009141405113
0.06677083333,0.009100268595
0.06679166667,0.00894485414
0.0668125,0.008902811445
0.06683333333,0.0088688666
0.06685416667,0.00875325501
0.066875,0.008687918074
0.06689583333,0.008549515158
0.06691666667,0.008350906894
0.0669375,0.008288970217
0.06695833333,0.008165034465
0.06697916667,0.00801408384
0.067,0.007850965485
0.06702083333,0.007655614056
0.06704166667,0.007462338544
0.0670625,0.007428982761
0.06708333333,0.007270825095
0.06710416667,0.007191502489
0.067125,0.006963261403
0.06714583333,0.006926378235
0.06716666667,0.006764932536
0.0671875,0.00669008866
0.06720833333,0.006650486495
0.06722916667,0.00658718776
0.06725,0.006478494033
0.06727083333,0.006407237146
0.06729166667,0.006321819499
0.0673125,0.00628853403
0.06733333333,0.006168482825
0.06735416667,0.006137011107
0.067375,0.005927217659
0.06739583333,0.005886155646
0.06741666667,0.005754828453
0.0674375,0.005718198605
0.06745833333,0.005722240079
0.06747916667,0.005657271482
0.0675,0.005600445438
0.06752083333,0.005541652441
0.06754166667,0.005462277681
0.0675625,0.005249608308
0.06758333333,0.0050643133
0.06760416667,0.004847878125
0.067625,0.004616520833
0.06764583333,0.004410570953
0.06766666667,0.004262608476
0.0676875,0.003961604089
0.06770833333,0.003979459871
0.06772916667,0.003669219557
0.06775,0.00365680526
0.06777083333,0.003700736677
0.06779166667,0.003498935606
0.0678125,0.003443620401
0.06783333333,0.003375050146
0.06785416667,0.003224212443
0.067875,0.003174166195
0.06789583333,0.003034448484
0.06791666667,0.003006782383
0.0679375,0.00283450773
0.06795833333,0.002749042585
0.06797916667,0.002564806025
0.068,0.002412372036
0.06802083333,0.002271241276
0.06804166667,0.002130708657
0.0680625,0.001974240877
0.06808333333,0.001859718817
0.06810416667,0.001688897843
0.068125,0.00162339583
0.06814583333,0.001448550145
0.06816666667,0.001296147238
0.0681875,0.001244459068
0.06820833333,0.001093719737
0.06822916667,0.001088063233
0.06825,0.001008148771
0.06827083333,0.0009814908262
0.06829166667,0.0009712774772
0.0683125,0.0009532011463
0.06833333333,0.0008781686192
0.06835416667,0.0009267937858
0.068375,0.0008517674869
0.06839583333,0.0009118673624
0.06841666667,0.0009374727961
0.0684375,0.001015010173
0.06845833333,0.0009939054726
0.06847916667,0.001044425298
0.0685,0.001004934078
0.06852083333,0.001050085528
0.06854166667,0.001092620194
0.0685625,0.001133579994
0.06858333333,0.001062984578
0.06860416667,0.001215320197
0.068625,0.001168940682
0.06864583333,0.001219586236
0.06866666667,0.001387326862
0.0686875,0.001274263836
0.06870833333,0.001360980677
0.06872916667,0.00152710604
0.06875,0.001431208919
0.06877083333,0.001458656974
0.06879166667,0.001453885925
0.0688125,0.001387898577
0.06883333333,0.001368830679
0.06885416667,0.00121226511
0.068875,0.001197464997
0.06889583333,0.001148683834
0.06891666667,0.001166392001
0.0689375,0.001096273772
0.06895833333,0.00105502014
0.06897916667,0.0009934934787
0.069,0.0009236877668
0.06902083333,0.0008219071897
0.06904166667,0.000799793459
0.0690625,0.0006224830868
0.06908333333,0.0006230573636
0.06910416667,0.000511782011
0.069125,0.0004922600347
0.06914583333,0.0003719003871
0.06916666667,0.0002935356752
0.0691875,0.0002209454542
0.06920833333,0.000204288066
0.06922916667,0.0001137329818
0.06925,6.557958113e-05
0.06927083333,3.628908598e-05
0.06929166667,-1.069139762e-05
0.0693125,-0.0001221899875
0.06933333333,-0.0002003680565
0.06935416667,-0.0003373478248
0.069375,-0.0003909885709
0.06939583333,-0.0005951295025
0.06941666667,-0.0006835431559
0.0694375,-0.0007892700378
0.06945833333,-0.0009414664819
0.06947916667,-0.0009366770973
0.0695,-0.001045899931
0.06952083333,-0.001032150816
0.06954166667,-0.001095723594
0.0695625,-0.001129804645
0.06958333333,-0.001156700077
0.06960416667,-0.00118855969
0.069625,-0.001225715154
0.06964583333,-0.001242054161
0.06966666667,-0.001284236554
0.0696875,-0.001375901746
0.06970833333,-0.00143506506
0.06972916667,-0.001487736707
0.06975,-0.001572644105
0.06977083333,-0.001606222009
0.06979166667,-0.001740195788
0.0698125,-0.001868210966
0.06983333333,-0.001971411286
0.06985416667,-0.002097052056
0.069875,-0.002190486528
0.06989583333,-0.002239918336
0.06991666667,-0.002366719767
0.0699375,-0.00243405439
0.06995833333,-0.002499058843
0.06997916667,-0.002457524184
0.07,-0.002508460311
0.07002083333,-0.002567700343
0.07004166667,-0.002600690583
0.0700625,-0.002670927206
0.07008333333,-0.002701663645
0.07010416667,-0.002682743594
0.070125,-0.002744291211
0.07014583333,-0.002755619586
0.07016666667,-0.002838699846
0.0701875,-0.002887038514
0.07020833333,-0.002907932736
0.07022916667,-0.002918052021
0.07025,-0.002867587144
0.07027083333,-0.002809660509
0.07029166667,-0.002737758681
0.0703125,-0.002671362367
0.07033333333,-0.00262485398
0.07035416667,-0.002674083458
0.070375,-0.002625070978
0.07039583333,-0.002613934688
0.07041666667,-0.002592067234
0.0704375,-0.00256481301
0.07045833333,-0.002657852834
0.07047916667,-0.002651054179
0.0705,-0.002673500916
0.07052083333,-0.002791346051
0.07054166667,-0.002812104067
0.0705625,-0.002847435419
0.07058333333,-0.002842682879
0.07060416667,-0.002922350774
0.070625,-0.002937426558
0.07064583333,-0.003053510562
0.07066666667,-0.003061449388
0.0706875,-0.003183225403
0.07070833333,-0.003261485836
0.07072916667,-0.003288712818
0.07075,-0.003341883188
0.07077083333,-0.003286719322
0.07079166667,-0.003305129008
0.0708125,-0.003397925524
0.07083333333,-0.003392949002
0.07085416667,-0.00349322916
0.070875,-0.003496262478
0.07089583333,-0.003450629069
0.07091666667,-0.00348186167
0.0709375,-0.003463553265
0.07095833333,-0.003498077858
0.07097916667,-0.003528867848
0.071,-0.003533839714
0.07102083333,-0.003642018884
0.07104166667,-0.003691578517
0.0710625,-0.003752404358
0.07108333333,-0.003832474817
0.07110416667,-0.003860185854
0.071125,-0.003924049437
0.07114583333,-0.003938001581
0.07116666667,-0.0039832443
0.0711875,-0.004036354367
0.07120833333,-0.00413892325
0.07122916667,-0.004298549611
0.07125,-0.004493074026
0.07127083333,-0.004627333023
0.07129166667,-0.004720456433
0.0713125,-0.004832894076
0.07133333333,-0.005008611362
0.07135416667,-0.00512821693
0.071375,-0.005255056079
0.07139583333,-0.00533310324
0.07141666667,-0.005454188678
0.0714375,-0.005478294566
0.07145833333,-0.005456706509
0.07147916667,-0.005553038791
0.0715,-0.005600593984
0.07152083333,-0.005704802461
0.07154166667,-0.005764281377
0.0715625,-0.005834616255
0.07158333333,-0.005925297737
0.07160416667,-0.006006069947
0.071625,-0.006034634076
0.07164583333,-0.006027276162
0.07166666667,-0.006083586253
0.0716875,-0.006073753815
0.07170833333,-0.006002280861
0.07172916667,-0.005943394266
0.07175,-0.005890873726
0.07177083333,-0.005942348391
0.07179166667,-0.005911593325
0.0718125,-0.005902525038
0.07183333333,-0.005954661407
0.07185416667,-0.005983004346
0.071875,-0.00596317742
0.07189583333,-0.006020950153
0.07191666667,-0.006054009777
0.0719375,-0.006170009263
0.07195833333,-0.006236967165
0.07197916667,-0.006309438031
0.072,-0.006313702557
0.07202083333,-0.006357318722
0.07204166667,-0.006374982186
0.0720625,-0.006485424004
0.07208333333,-0.006571155041
0.07210416667,-0.006680809427
0.072125,-0.006795702968
0.07214583333,-0.0068825786
0.07216666667,-0.006939992774
0.0721875,-0.006994793657
0.07220833333,-0.007073450834
0.07222916667,-0.00719976984
0.07225,-0.007236040197
0.07227083333,-0.007329918444
0.07229166667,-0.007465308998
0.0723125,-0.007468025666
0.07233333333,-0.007487237453
0.07235416667,-0.007438561413
0.072375,-0.007435369305
0.07239583333,-0.007360108197
0.07241666667,-0.007316899486
0.0724375,-0.007336766925
0.07245833333,-0.007320374716
0.07247916667,-0.007352767978
0.0725,-0.007399981376
0.07252083333,-0.007402642164
0.07254166667,-0.007324995007
0.0725625,-0.007299239747
0.07258333333,-0.007229971699
0.07260416667,-0.007134716026
0.072625,-0.00720407255
0.07264583333,-0.007106267381
0.07266666667,-0.0070671672
0.0726875,-0.007006478496
0.07270833333,-0.007008123212
0.07272916667,-0.00705076661
0.07275,-0.007052085362
0.07277083333,-0.007082466502
0.07279166667,-0.007052440662
0.0728125,-0.007045148406
0.07283333333,-0.007051480934
0.07285416667,-0.00702847261
0.072875,-0.007098436821
0.07289583333,-0.00704484852
0.07291666667,-0.007074047811
0.0729375,-0.007020965219
0.07295833333,-0.006985621527
0.07297916667,-0.007049514446
0.073,-0.007091175299
0.07302083333,-0.007103983779
0.07304166667,-0.007059849799
0.0730625,-0.007079357281
0.07308333333,-0.007000430487
0.07310416667,-0.006978511345
0.073125,-0.006945074536
0.07314583333,-0.007010931615
0.07316666667,-0.007088447921
0.0731875,-0.007084795274
0.07320833333,-0.007084411569
0.07322916667,-0.007009341847
0.07325,-0.007013595663
0.07327083333,-0.007078714203
0.07329166667,-0.00712161744
0.0733125,-0.007199084386
0.07333333333,-0.007182675879
0.07335416667,-0.007232487202
0.073375,-0.007163763512
0.07339583333,-0.00712272292
0.07341666667,-0.00713119749
0.0734375,-0.007138806861
0.07345833333,-0.007217770908
0.07347916667,-0.007239407394
0.0735,-0.007262472995
0.07352083333,-0.007323666476
0.07354166667,-0.007375414949
0.0735625,-0.007408407517
0.07358333333,-0.007399961352
0.07360416667,-0.00750223361
0.073625,-0.007462002803
0.07364583333,-0.007519374602
0.07366666667,-0.007574691437
0.0736875,-0.007596840616
0.07370833333,-0.007579390891
0.07372916667,-0.007546551526
0.07375,-0.007545758504
0.07377083333,-0.007537525613
0.07379166667,-0.007593148854
0.0738125,-0.007589321118
0.07383333333,-0.007572106086
0.07385416667,-0.007595826406
0.073875,-0.007580218371
0.07389583333,-0.007636513561
0.07391666667,-0.007676038891
0.0739375,-0.007706638426
0.07395833333,-0.007759974804
0.07397916667,-0.007759524975
0.074,-0.007766382303
0.07402083333,-0.007820341736
0.07404166667,-0.007883246988
0.0740625,-0.007879734971
0.07408333333,-0.007885619998
0.07410416667,-0.007858579047
0.074125,-0.007841700688
0.07414583333,-0.007912494242
0.07416666667,-0.008015464991
0.0741875,-0.008063436486
0.07420833333,-0.00807691738
0.07422916667,-0.008071526885
0.07425,-0.008105525747
0.07427083333,-0.008094049059
0.07429166667,-0.008122105151
0.0743125,-0.0081553692
0.07433333333,-0.008133963682
0.07435416667,-0.008109381422
0.074375,-0.00816869922
0.07439583333,-0.008111173287
0.07441666667,-0.008175134659
0.0744375,-0.008198150434
0.07445833333,-0.008238019422
0.07447916667,-0.008243667893
0.0745,-0.008299204521
0.07452083333,-0.008389931172
0.07454166667,-0.008440499194
0.0745625,-0.008510692045
0.07458333333,-0.008569811471
0.07460416667,-0.008583008312
0.074625,-0.008644427173
0.07464583333,-0.008727242239
0.07466666667,-0.008770784363
0.0746875,-0.008830247447
0.07470833333,-0.008837427013
0.07472916667,-0.008831542917
0.07475,-0.008759594522
0.07477083333,-0.008750020526
0.07479166667,-0.008733119816
0.0748125,-0.008745091036
0.07483333333,-0.008718559518
0.07485416667,-0.008784133941
0.074875,-0.008827248588
0.07489583333,-0.00883762911
0.07491666667,-0.008826085366
0.0749375,-0.008902964182
0.07495833333,-0.00883105211
0.07497916667,-0.008850566112
0.075,-0.00888291467
0.07502083333,-0.008943783119
0.07504166667,-0.00890509598
0.0750625,-0.008920880035
0.07508333333,-0.008919525892
0.07510416667,-0.009061589837
0.075125,-0.009094724432
0.07514583333,-0.009157954715
0.07516666667,-0.009254123084
0.0751875,-0.009327773936
0.07520833333,-0.009399114177
0.07522916667,-0.00944027584
0.07525,-0.009481473826
0.07527083333,-0.009448133409
0.07529166667,-0.009560412727
0.0753125,-0.009640094824
0.07533333333,-0.009707996622
0.07535416667,-0.009735956788
0.075375,-0.009691303596
0.07539583333,-0.009675143287
0.07541666667,-0.009670185857
0.0754375,-0.009735720232
0.07545833333,-0.009686923586
0.07547916667,-0.009707207792
0.0755,-0.009687171318
0.07552083333,-0.00970571395
0.07554166667,-0.009732517414
0.0755625,-0.009656018578
0.07558333333,-0.009629753418
0.07560416667,-0.009593690746
0.075625,-0.009587174281
0.07564583333,-0.009557838552
0.07566666667,-0.00953863468
0.0756875,-0.009558264166
0.07570833333,-0.009616019204
0.07572916667,-0.009618206881
0.07575,-0.009673954919
0.07577083333,-0.009608689696
0.07579166667,-0.009520595893
0.0758125,-0.009383585304
0.07583333333,-0.009364468977
0.07585416667,-0.00920610223
0.075875,-0.0091712391
0.07589583333,-0.009030093439
0.07591666667,-0.00901030656
0.0759375,-0.008899419568
0.07595833333,-0.00874642469
0.07597916667,-0.008731899783
0.076,-0.008707185276
0.07602083333,-0.008701005951
0.07604166667,-0.008653435856
0.0760625,-0.008548891172
0.07608333333,-0.008575821295
0.07610416667,-0.008493786678
0.076125,-0.00839742925
0.07614583333,-0.008294490166
0.07616666667,-0.008168227971
0.0761875,-0.008134433068
0.07620833333,-0.008063728921
0.07622916667,-0.007995695807
0.07625,-0.008000841364
0.07627083333,-0.008019136265
0.07629166667,-0.008069302887
0.0763125,-0.008112212643
0.07633333333,-0.008108768612
0.07635416667,-0.008213177323
0.076375,-0.008227149025
0.07639583333,-0.008304582909
0.07641666667,-0.008361171
0.0764375,-0.00845092535
0.07645833333,-0.008467534557
0.07647916667,-0.008509592153
0.0765,-0.008500688709
0.07652083333,-0.008527925238
0.07654166667,-0.008508929983
0.0765625,-0.008509912528
0.07658333333,-0.008504476398
0.07660416667,-0.008494054899
0.076625,-0.008472629823
0.07664583333,-0.008450591937
0.07666666667,-0.008333552629
0.0766875,-0.008295853622
0.07670833333,-0.008200724609
0.07672916667,-0.008180703968
0.07675,-0.00804794021
0.07677083333,-0.007992802188
0.07679166667,-0.007911880501
0.0768125,-0.007888136432
0.07683333333,-0.007742789574
0.07685416667,-0.007680397015
0.076875,-0.007559616584
0.07689583333,-0.007451717742
0.07691666667,-0.007403035183
0.0769375,-0.007282302715
0.07695833333,-0.007276418619
0.07697916667,-0.007178504486
0.077,-0.007172569633
0.07702083333,-0.007076800335
0.07704166667,-0.006964543834
0.0770625,-0.006832717452
0.07708333333,-0.006915512029
0.07710416667,-0.006818367634
0.077125,-0.006880263798
0.07714583333,-0.006764119025
0.07716666667,-0.006694584154
0.0771875,-0.006633042358
0.07720833333,-0.006573505234
0.07722916667,-0.006450192071
0.07725,-0.00634634681
0.07727083333,-0.006231097039
0.07729166667,-0.006132175215
0.0773125,-0.005988859106
0.07733333333,-0.005903283134
0.07735416667,-0.005768407136
0.077375,-0.005669218954
0.07739583333,-0.00550700957
0.07741666667,-0.005309861153
0.0774375,-0.0050841216
0.07745833333,-0.004892975092
0.07747916667,-0.004762031138
0.0775,-0.004663080908
0.07752083333,-0.004546219949
0.07754166667,-0.004440266639
0.0775625,-0.00434870692
0.07758333333,-0.004150764085
0.07760416667,-0.004053940065
0.077625,-0.003936730791
0.07764583333,-0.003864740953
0.07766666667,-0.00382462237
0.0776875,-0.003727639094
0.07770833333,-0.003607105929
0.07772916667,-0.003470435739
0.07775,-0.003283142578
0.07777083333,-0.003205000656
0.07779166667,-0.00296144723
0.0778125,-0.002830174984
0.07783333333,-0.002655414166
0.07785416667,-0.002650804585
0.077875,-0.002576309722
0.07789583333,-0.002295988845
0.07791666667,-0.002098295372
0.0779375,-0.001969221048
0.07795833333,-0.001779767685
0.07797916667,-0.00161871314
0.078,-0.001430488075
0.07802083333,-0.001355484128
0.07804166667,-0.001132726669
0.0780625,-0.001092244522
0.07808333333,-0.0008778271731
0.07810416667,-0.0007539761718
0.078125,-0.0006511771353
0.07814583333,-0.0005433001788
0.07816666667,-0.000525132753
0.0781875,-0.0004364332417
0.07820833333,-0.0004577410582
0.07822916667,-0.0003701645765
0.07825,-0.0003270258312
0.07827083333,-0.0002244384959
0.07829166667,-0.0001373870764
0.0783125,-6.441381993e-05
0.07833333333,4.825298674e-06
0.07835416667,0.0001064327662
0.078375,0.0001552379108
0.07839583333,0.00027168222
0.07841666667,0.0003076985595
0.0784375,0.0004707829212
0.07845833333,0.0005252086557
0.07847916667,0.0006586253294
0.0785,0.0007052986184
0.07852083333,0.0007764352486
0.07854166667,0.0008029360906
0.0785625,0.0008496945375
0.07858333333,0.0008728098474
0.07860416667,0.0009196238825
0.078625,0.00101198256
0.07864583333,0.001079933252
0.07866666667,0.001207734225
0.0786875,0.001292202622
0.07870833333,0.001369509962
0.07872916667,0.001421822701
0.07875,0.00150688435
0.07877083333,0.001648458885
0.07879166667,0.001799582271
0.0788125,0.001922765747
0.07883333333,0.002062856453
0.07885416667,0.002051859628
0.078875,0.002334963065
0.07889583333,0.002311451128
0.07891666667,0.002503674012
0.0789375,0.002482729498
0.07895833333,0.002644803608
0.07897916667,0.002700562822
0.079,0.002758463379
0.07902083333,0.002779233735
0.07904166667,0.002814164385
0.0790625,0.002796343062
0.07908333333,0.002836214378
0.07910416667,0.002817845671
0.079125,0.002898234176
0.07914583333,0.002953913296
0.07916666667,0.00304849213
0.0791875,0.00304538128
0.07920833333,0.003115441184
0.07922916667,0.003196793143
0.07925,0.003285254817
0.07927083333,0.003379367525
0.07929166667,0.003432437778
0.0793125,0.003548378358
0.07933333333,0.003635523142
0.07935416667,0.003765225876
0.079375,0.003920109477
0.07939583333,0.004085369408
0.07941666667,0.004299940541
0.0794375,0.004465702455
0.07945833333,0.004611250479
0.07947916667,0.004763556644
0.0795,0.004878613167
0.07952083333,0.004978591111
0.07954166667,0.005067564547
0.0795625,0.005188876297
0.07958333333,0.005234622862
0.07960416667,0.005296093877
0.079625,0.005391400307
0.07964583333,0.005433042068
0.07966666667,0.005480089225
0.0796875,0.005557682831
0.07970833333,0.005558329169
0.07972916667,0.005613822956
0.07975,0.005651285872
0.07977083333,0.005709337536
0.07979166667,0.005786479916
0.0798125,0.005877726711
0.07983333333,0.006005384494
0.07985416667,0.006096385885
0.079875,0.006176451221
0.07989583333,0.006260431372
0.07991666667,0.006340307184
0.0799375,0.00645713415
0.07995833333,0.006563729141
0.07997916667,0.006711042486
0.08,0.006875271909
0.08002083333,0.00701037515
0.08004166667,0.007142199203
0.0800625,0.007255011238
0.08008333333,0.007372591645
0.08010416667,0.007415522821
0.080125,0.007512288168
0.08014583333,0.007530901581
0.08016666667,0.007542295847
0.0801875,0.007581364363
0.08020833333,0.007614330854
0.08022916667,0.007694863249
0.08025,0.007776644547
0.08027083333,0.007784209214
0.08029166667,0.007836903445
0.0803125,0.007856893353
0.08033333333,0.007934369147
0.08035416667,0.007986892946
0.080375,0.008098582737
0.08039583333,0.008139942773
0.08041666667,0.008229618892
0.0804375,0.008252524771
0.08045833333,0.008303871378
0.08047916667,0.008355085738
0.0805,0.008371116593
0.08052083333,0.00838961266
0.08054166667,0.008387459442
0.0805625,0.008391553536
0.08058333333,0.00842096284
0.08060416667,0.008473963477
0.080625,0.008541551419
0.08064583333,0.008591490798
0.08066666667,0.00862432085
0.0806875,0.008700441569
0.08070833333,0.008763095364
0.08072916667,0.008881709538
0.08075,0.008884530514
0.08077083333,0.009009364061
0.08079166667,0.009006678127
0.0808125,0.009085529484
0.08083333333,0.009132895619
0.08085416667,0.00920198299
0.080875,0.009294361807
0.08089583333,0.009373052977
0.08091666667,0.009459079243
0.0809375,0.009538990445
0.08095833333,0.009635171853
0.08097916667,0.009700914845
0.081,0.009713271633
0.08102083333,0.009755883366
0.08104166667,0.009748723358
0.0810625,0.009779853746
0.08108333333,0.009768905118
0.08110416667,0.009769262746
0.081125,0.009733636864
0.08114583333,0.009682954289
0.08116666667,0.009647490457
0.0811875,0.009589946829
0.08120833333,0.009523957036
0.08122916667,0.009487226605
0.08125,0.009461959824
0.08127083333,0.00943170581
0.08129166667,0.009425117634
0.0813125,0.009377730079
0.08133333333,0.009423387237
0.08135416667,0.009381023236
0.081375,0.009447020479
0.08139583333,0.00948649738
0.08141666667,0.009526909329
0.0814375,0.009603353217
0.08145833333,0.009619561955
0.08147916667,0.009619056247
0.0815,0.009659122676
0.08152083333,0.009678036906
0.08154166667,0.009767447598
0.0815625,0.009803682566
0.08158333333,0.009831054136
0.08160416667,0.009808001108
0.081625,0.009813711047
0.08164583333,0.009826784022
0.08166666667,0.009891781956
0.0816875,0.009931669571
0.08170833333,0.009987696074
0.08172916667,0.00998108089
0.08175,0.00994973816
0.08177083333,0.009900049306
0.08179166667,0.009881154634
0.0818125,0.009900838137
0.08183333333,0.009977378882
0.08185416667,0.01003343426
0.081875,0.01006259397
0.08189583333,0.01008982677
0.08191666667,0.01007361151
0.0819375,0.01001071371
0.08195833333,0.009974305518
0.08197916667,0.009984295815
0.082,0.009975674562
0.08202083333,0.01000646036
0.08204166667,0.01000723615
0.0820625,0.01001791004
0.08208333333,0.009992429987
0.08210416667,0.01002322137
0.082125,0.0100263413
0.08214583333,0.01011728682
0.08216666667,0.01010868698
0.0821875,0.01014678273
0.08220833333,0.01010958478
0.08222916667,0.01011098456
0.08225,0.01010575891
0.08227083333,0.01015371922
0.08229166667,0.01017833315
0.0823125,0.01021475811
0.08233333333,0.01014641114
0.08235416667,0.01009737793
0.082375,0.01005876064
0.08239583333,0.01005625073
0.08241666667,0.01005985215
0.0824375,0.01008487307
0.08245833333,0.01009836886
0.08247916667,0.01012079418
0.0825,0.01016292255
0.08252083333,0.01017994061
0.08254166667,0.01024013665
0.0825625,0.01031169947
0.08258333333,0.01038893219
0.08260416667,0.01041729655
0.082625,0.01044286229
0.08264583333,0.01049597096
0.08266666667,0.01055505499
0.0826875,0.01061120443
0.08270833333,0.01071035489
0.08272916667,0.01071636844
0.08275,0.0107478369
0.08277083333,0.01080988348
0.08279166667,0.01080529485
0.0828125,0.01081099082
0.08283333333,0.01081274543
0.08285416667,0.01081134472
0.082875,0.01087308861
0.08289583333,0.01092439517
0.08291666667,0.0110348016
0.0829375,0.01108927373
0.08295833333,0.01122756675
0.08297916667,0.01124296524
0.083,0.01127257198
0.08302083333,0.01130496152
0.08304166667,0.0113205146
0.0830625,0.01134757604
0.08308333333,0.01133789402
0.08310416667,0.01134248916
0.083125,0.01131689083
0.08314583333,0.01129708998
0.08316666667,0.01132488623
0.0831875,0.011350316
0.08320833333,0.01136877574
0.08322916667,0.01143953018
0.08325,0.01146589592
0.08327083333,0.01150227338
0.08329166667,0.011563682
0.0833125,0.01161351241
0.08333333333,0.01170155406
0.08335416667,0.01173693966
0.083375,0.01177663077
0.08339583333,0.01188288815
0.08341666667,0.0118692182
0.0834375,0.01189014409
0.08345833333,0.01187589113
0.08347916667,0.01191486511
0.0835,0.01188527048
0.08352083333,0.01188733429
0.08354166667,0.01181835495
0.0835625,0.01183260884
0.08358333333,0.01181782503
0.08360416667,0.01182390656
0.083625,0.01181199215
0.08364583333,0.01180533785
0.08366666667,0.01176716201
0.0836875,0.01171363518
0.08370833333,0.01165117417
0.08372916667,0.01158492081
0.08375,0.01156155206
0.08377083333,0.01155553292
0.08379166667,0.01150707621
0.0838125,0.0114918286
0.08383333333,0.01149890944
0.08385416667,0.01145484019
0.083875,0.01146496832
0.08389583333,0.01146532688
0.08391666667,0.01150625478
0.0839375,0.01148389466
0.08395833333,0.0114383148
0.08397916667,0.01139460597
0.084,0.01137222536
0.08402083333,0.01129336935
0.08404166667,0.0112255048
0.0840625,0.01117125433
0.08408333333,0.01117221732
0.08410416667,0.01116730645
0.084125,0.0111646615
0.08414583333,0.0111912461
0.08416666667,0.01123045012
0.0841875,0.01124507003
0.08420833333,0.01129425317
0.08422916667,0.0113296546
0.08425,0.01140423398
0.08427083333,0.01148063876
0.08429166667,0.01156508178
0.0843125,0.01163542923
0.08433333333,0.01174328942
0.08435416667,0.0118337879
0.084375,0.01188566443
0.08439583333,0.01197048463
0.08441666667,0.01203041058
0.0844375,0.01208539773
0.08445833333,0.01212593354
0.08447916667,0.0122242393
0.0845,0.01227582991
0.08452083333,0.01232359186
0.08454166667,0.01231841184
0.0845625,0.01235248335
0.08458333333,0.01234337222
0.08460416667,0.01241264585
0.084625,0.01241140533
0.08464583333,0.01246403996
0.08466666667,0.01248563081
0.0846875,0.01251006871
0.08470833333,0.01251794677
0.08472916667,0.01249023341
0.08475,0.01245251019
0.08477083333,0.01247977559
0.08479166667,0.01249112003
0.0848125,0.01254359912
0.08483333333,0.01257113926
0.08485416667,0.01255230606
0.084875,0.01251462381
0.08489583333,0.01247841399
0.08491666667,0.01248841081
0.0849375,0.01253740489
0.08495833333,0.01259677764
0.08497916667,0.01264511887
0.085,0.01271783933
0.08502083333,0.01276624575
0.08504166667,0.01282828581
0.0850625,0.01286494359
0.08508333333,0.01296299137
0.08510416667,0.01299282257
0.085125,0.01304441039
0.08514583333,0.01303644571
0.08516666667,0.01305526122
0.0851875,0.01303332113
0.08520833333,0.01297479495
0.08522916667,0.01293731108
0.08525,0.01288703922
0.08527083333,0.01281163376
0.08529166667,0.01279903855
0.0853125,0.0127690034
0.08533333333,0.01273752376
0.08535416667,0.01266745105
0.085375,0.01262305398
0.08539583333,0.01250010729
0.08541666667,0.01242225524
0.0854375,0.01231324114
0.08545833333,0.01230029855
0.08547916667,0.01227120124
0.0855,0.01223518606
0.08552083333,0.01219539717
0.08554166667,0.01208988018
0.0855625,0.01199011691
0.08558333333,0.0118883606
0.08560416667,0.01180172339
0.085625,0.01172602084
0.08564583333,0.01169955451
0.08566666667,0.0116282627
0.0856875,0.0116143655
0.08570833333,0.01152591221
0.08572916667,0.01146332175
0.08575,0.01146312244
0.08577083333,0.0114182299
0.08579166667,0.01136454009
0.0858125,0.01130010188
0.08583333333,0.0111683663
0.08585416667,0.0110873403
0.085875,0.01097584236
0.08589583333,0.01095823012
0.08591666667,0.01089074276
0.0859375,0.01086897496
0.08595833333,0.01080217957
0.08597916667,0.01071518287
0.086,0.01057479158
0.08602083333,0.01047670469
0.08604166667,0.01034686808
0.0860625,0.01029710472
0.08608333333,0.01023337431
0.08610416667,0.01016008295
0.086125,0.01006938051
0.08614583333,0.01001410373
0.08616666667,0.009943991899
0.0861875,0.009933084249
0.08620833333,0.009917976335
0.08622916667,0.009856996126
0.08625,0.009805182926
0.08627083333,0.009696330875
0.08629166667,0.009598163888
0.0863125,0.009544152766
0.08633333333,0.009503523819
0.08635416667,0.009444504045
0.086375,0.009384742007
0.08639583333,0.009273877367
0.08641666667,0.009207935072
0.0864375,0.009135529399
0.08645833333,0.009106998332
0.08647916667,0.009095539339
0.0865,0.009128052741
0.08652083333,0.009075528011
0.08654166667,0.009079756215
0.0865625,0.009062134661
0.08658333333,0.009084600024
0.08660416667,0.009037340991
0.086625,0.00906021148
0.08664583333,0.008996101096
0.08666666667,0.008993196301
0.0866875,0.008948507719
0.08670833333,0.008930033073
0.08672916667,0.008873926476
0.08675,0.008845820092
0.08677083333,0.008819775656
0.08679166667,0.008757267147
0.0868125,0.008705728687
0.08683333333,0.008640103042
0.08685416667,0.00856512785
0.086875,0.008541110903
0.08689583333,0.008510136046
0.08691666667,0.008462732658
0.0869375,0.008349332958
0.08695833333,0.008349759504
0.08697916667,0.008322309703
0.087,0.008284742944
0.08702083333,0.008229833096
0.08704166667,0.00814384222
0.0870625,0.008058547974
0.08708333333,0.007976218127
0.08710416667,0.007932295091
0.087125,0.007882179692
0.08714583333,0.007862895727
0.08716666667,0.007803809363
0.0871875,0.007751487661
0.08720833333,0.007607814856
0.08722916667,0.007494534831
0.08725,0.007311018184
0.08727083333,0.007210141979
0.08729166667,0.007033553906
0.0873125,0.006920758169
0.08733333333,0.006749788299
0.08735416667,0.00660359161
0.087375,0.006450308021
0.08739583333,0.006360776257
0.08741666667,0.006248389371
0.0874375,0.006200399715
0.08745833333,0.00607480295
0.08747916667,0.005996920168
0.0875,0.005846104585
0.08752083333,0.00575049594
0.08754166667,0.0056035202
0.0875625,0.005442800932
0.08758333333,0.005293651018
0.08760416667,0.005157928914
0.087625,0.005006622057
0.08764583333,0.004936634563
0.08766666667,0.004793053959
0.0876875,0.004696774762
0.08770833333,0.004584476817
0.08772916667,0.004466095008
0.08775,0.004376542289
0.08777083333,0.004279823042
0.08779166667,0.004242781084
0.0878125,0.004098042846
0.08783333333,0.004107927438
0.08785416667,0.003943157382
0.087875,0.003954419401
0.08789583333,0.003863693913
0.08791666667,0.003876106814
0.0879375,0.00388272712
0.08795833333,0.003851545742
0.08797916667,0.003769875504
0.088,0.003735660575
0.08802083333,0.003618622199
0.08804166667,0.003611496417
0.0880625,0.003496579127
0.08808333333,0.003478521015
0.08810416667,0.003366183722
0.088125,0.003269560635
0.08814583333,0.003166222945
0.08816666667,0.003082322422
0.0881875,0.002964633517
0.08820833333,0.002864160342
0.08822916667,0.002805257682
0.08825,0.002758847317
0.08827083333,0.00268386025
0.08829166667,0.002643551677
0.0883125,0.002533505671
0.08833333333,0.00249590585
0.08835416667,0.002407039516
0.088375,0.002350111492
0.08839583333,0.002332041739
0.08841666667,0.002298695035
0.0884375,0.00230681384
0.08845833333,0.002274818486
0.08847916667,0.002250699792
0.0885,0.002182521624
0.08852083333,0.00213758694
0.08854166667,0.002075440716
0.0885625,0.002073654206
0.08858333333,0.002035529353
0.08860416667,0.00209554797
0.088625,0.002066347282
0.08864583333,0.00211701938
0.08866666667,0.002042771084
0.0886875,0.00205213367
0.08870833333,0.001975697
0.08872916667,0.002006788738
0.08875,0.001979167573
0.08877083333,0.002007058356
0.08879166667,0.001986520831
0.0888125,0.001925192541
0.08883333333,0.001853514463
0.08885416667,0.001878174138
0.088875,0.001767514157
0.08889583333,0.00175103778
0.08891666667,0.001663161092
0.0889375,0.001644180855
0.08895833333,0.001573601156
0.08897916667,0.001491440693
0.089,0.001413677121
0.08902083333,0.001350314822
0.08904166667,0.001293692854
0.0890625,0.001205053413
0.08908333333,0.001077034976
0.08910416667,0.001005173428
0.089125,0.000903487904
0.08914583333,0.0008080705302
0.08916666667,0.000687053951
0.0891875,0.0006247236743
0.08920833333,0.0005600315053
0.08922916667,0.0004996544449
0.08925,0.0004638020764
0.08927083333,0.0003789182811
0.08929166667,0.0003469143703
0.0893125,0.0002446449653
0.08933333333,0.0001906504622
0.08935416667,0.0001168106974
0.089375,0.0001156642393
0.08939583333,6.695813499e-05
0.08941666667,3.771181218e-05
0.0894375,-5.470190081e-05
0.08945833333,-7.212301716e-05
0.08947916667,-0.0001801870822
