time,data
0,1.322631693e-08
2.083333333e-05,1.963651108e-08
4.166666667e-05,2.574539515e-08
6.25e-05,3.148551997e-08
8.333333333e-05,3.725612174e-08
0.0001041666667,4.328277114e-08
0.000125,4.966782896e-08
0.0001458333333,5.627956057e-08
0.0001666666667,6.275312359e-08
0.0001875,6.907229277e-08
0.0002083333333,7.522045564e-08
0.0002291666667,8.165014265e-08
0.00025,8.855377587e-08
0.0002708333333,9.602426587e-08
0.0002916666667,1.038670803e-07
0.0003125,1.116591051e-07
0.0003333333333,1.193275239e-07
0.0003541666667,1.267314929e-07
0.000375,1.342216933e-07
0.0003958333333,1.418486733e-07
0.0004166666667,1.496242277e-07
0.0004375,1.573203861e-07
0.0004583333333,1.645037315e-07
0.0004791666667,1.711234034e-07
0.0005,1.770249725e-07
0.0005208333333,1.826052483e-07
0.0005416666667,1.879769513e-07
0.0005625,1.933299529e-07
0.0005833333333,1.985693814e-07
0.0006041666667,2.033846442e-07
0.000625,2.076887e-07
0.0006458333333,2.112269897e-07
0.0006666666667,2.143121947e-07
0.0006875,2.169877149e-07
0.0007083333333,2.194959734e-07
0.0007291666667,2.216802528e-07
0.00075,2.231005851e-07
0.0007708333333,2.234557144e-07
0.0007916666667,2.222451059e-07
0.0008125,2.198292464e-07
0.0008333333333,2.16358174e-07
0.0008541666667,2.124141218e-07
0.000875,2.080197561e-07
0.0008958333333,2.027937995e-07
0.0009166666667,1.964234144e-07
0.0009375,1.88417502e-07
0.0009583333333,1.793483193e-07
0.0009791666667,1.69671921e-07
0.001,1.601442818e-07
0.001020833333,1.507793854e-07
0.001041666667,1.408512276e-07
0.0010625,1.297035652e-07
0.001083333333,1.166112042e-07
0.001104166667,1.021473821e-07
0.001125,8.688615338e-08
0.001145833333,7.165530747e-08
0.001166666667,5.630444733e-08
0.0011875,4.002334109e-08
0.001208333333,2.202272853e-08
0.001229166667,1.908871061e-09
0.00125,-1.936201244e-08
0.001270833333,-4.077040217e-08
0.001291666667,-6.122026974e-08
0.0013125,-8.090513859e-08
0.001333333333,-1.006837351e-07
0.001354166667,-1.213695526e-07
0.001375,-1.433619303e-07
0.001395833333,-1.655690625e-07
0.001416666667,-1.872388822e-07
0.0014375,-2.074848737e-07
0.001458333333,-2.269592017e-07
0.001479166667,-2.46735965e-07
0.0015,-2.676854933e-07
0.001520833333,-2.901031451e-07
0.001541666667,-3.128141088e-07
0.0015625,-3.349339863e-07
0.001583333333,-3.555625483e-07
0.001604166667,-3.750268718e-07
0.001625,-3.940911029e-07
0.001645833333,-4.131769629e-07
0.001666666667,-4.32347548e-07
0.0016875,-4.504182129e-07
0.001708333333,-4.666965197e-07
0.001729166667,-4.803778211e-07
0.00175,-4.920046308e-07
0.001770833333,-5.022700975e-07
0.001791666667,-5.119994171e-07
0.0018125,-5.215763395e-07
0.001833333333,-5.304131605e-07
0.001854166667,-5.381249366e-07
0.001875,-5.438878361e-07
0.001895833333,-5.479237757e-07
0.001916666667,-5.506423122e-07
0.0019375,-5.525826055e-07
0.001958333333,-5.542868848e-07
0.001979166667,-5.5491995e-07
0.002,-5.539317272e-07
0.002020833333,-5.498323503e-07
0.002041666667,-5.424370215e-07
0.0020625,-5.320765126e-07
0.002083333333,-5.197568953e-07
0.002104166667,-5.066615358e-07
0.002125,-4.92618085e-07
0.002145833333,-4.770886335e-07
0.002166666667,-4.587887474e-07
0.0021875,-4.373798674e-07
0.002208333333,-4.138213114e-07
0.002229166667,-3.895748364e-07
0.00225,-3.662763959e-07
0.002270833333,-3.435707185e-07
0.002291666667,-3.202338235e-07
0.0023125,-2.941214348e-07
0.002333333333,-2.644958954e-07
0.002354166667,-2.320638259e-07
0.002375,-1.987238534e-07
0.002395833333,-1.6589577e-07
0.002416666667,-1.332532094e-07
0.0024375,-9.911644838e-08
0.002458333333,-6.148150078e-08
0.002479166667,-2.00721626e-08
0.0025,2.344441086e-08
0.002520833333,6.647604067e-08
0.002541666667,1.069783551e-07
0.0025625,1.454842362e-07
0.002583333333,1.835249748e-07
0.002604166667,2.233635712e-07
0.002625,2.650401427e-07
0.002645833333,3.071039885e-07
0.002666666667,3.473099639e-07
0.0026875,3.844525622e-07
0.002708333333,4.196268719e-07
0.002729166667,4.549942219e-07
0.00275,4.925433927e-07
0.002770833333,5.32469187e-07
0.002791666667,5.728813335e-07
0.0028125,6.1176803e-07
0.002833333333,6.474983252e-07
0.002854166667,6.808126614e-07
0.002875,7.128325592e-07
0.002895833333,7.448824704e-07
0.002916666667,7.765514738e-07
0.0029375,8.062946222e-07
0.002958333333,8.32298042e-07
0.002979166667,8.535502616e-07
0.003,8.70644044e-07
0.003020833333,8.850885251e-07
0.003041666667,8.983595308e-07
0.0030625,9.112426937e-07
0.003083333333,9.229879083e-07
0.003104166667,9.327466159e-07
0.003125,9.391695812e-07
0.003145833333,9.425010603e-07
0.003166666667,9.43197449e-07
0.0031875,9.426990459e-07
0.003208333333,9.414716828e-07
0.003229166667,9.389581805e-07
0.00325,9.335349773e-07
0.003270833333,9.230455476e-07
0.003291666667,9.066890811e-07
0.0033125,8.850385598e-07
0.003333333333,8.600089814e-07
0.003354166667,8.337655117e-07
0.003375,8.062501706e-07
0.003395833333,7.767661714e-07
0.003416666667,7.426304478e-07
0.0034375,7.036277907e-07
0.003458333333,6.607385785e-07
0.003479166667,6.171275118e-07
0.0035,5.753605024e-07
0.003520833333,5.352887911e-07
0.003541666667,4.946421654e-07
0.0035625,4.497527186e-07
0.003583333333,3.990298865e-07
0.003604166667,3.438512124e-07
0.003625,2.872005211e-07
0.003645833333,2.320607564e-07
0.003666666667,1.775487419e-07
0.0036875,1.212685277e-07
0.003708333333,5.928271563e-08
0.003729166667,-8.524700945e-09
0.00375,-7.978955097e-08
0.003770833333,-1.495913295e-07
0.003791666667,-2.148414211e-07
0.0038125,-2.759817335e-07
0.003833333333,-3.3598306e-07
0.003854166667,-3.985095418e-07
0.003875,-4.638059465e-07
0.003895833333,-5.293553613e-07
0.003916666667,-5.914495773e-07
0.0039375,-6.478094292e-07
0.003958333333,-7.007751037e-07
0.003979166667,-7.533395205e-07
0.004,-8.098091939e-07
0.004020833333,-8.69465282e-07
0.004041666667,-9.30110275e-07
0.0040625,-9.874463558e-07
0.004083333333,-1.039427957e-06
0.004104166667,-1.08699976e-06
0.004125,-1.132287025e-06
0.004145833333,-1.177620334e-06
0.004166666667,-1.222125206e-06
0.0041875,-1.26330599e-06
0.004208333333,-1.298066991e-06
0.004229166667,-1.324592517e-06
0.00425,-1.34454956e-06
0.004270833333,-1.359740509e-06
0.004291666667,-1.373901796e-06
0.0043125,-1.386803206e-06
0.004333333333,-1.39857832e-06
0.004354166667,-1.406283445e-06
0.004375,-1.408865501e-06
0.004395833333,-1.40625923e-06
0.004416666667,-1.399621851e-06
0.0044375,-1.391741534e-06
0.004458333333,-1.382657388e-06
0.004479166667,-1.371981739e-06
0.0045,-1.356340817e-06
0.004520833333,-1.33242122e-06
0.004541666667,-1.29964701e-06
0.0045625,-1.258116527e-06
0.004583333333,-1.212854499e-06
0.004604166667,-1.165069989e-06
0.004625,-1.116744443e-06
0.004645833333,-1.06440325e-06
0.004666666667,-1.00539728e-06
0.0046875,-9.386955071e-07
0.004708333333,-8.663197377e-07
0.004729166667,-7.94037021e-07
0.00475,-7.247834901e-07
0.004770833333,-6.592251793e-07
0.004791666667,-5.925796813e-07
0.0048125,-5.194144705e-07
0.004833333333,-4.378807432e-07
0.004854166667,-3.491613825e-07
0.004875,-2.602116922e-07
0.004895833333,-1.730083596e-07
0.004916666667,-8.876114777e-08
0.0049375,-8.368041815e-10
0.004958333333,9.479802543e-08
0.004979166667,1.994866352e-07
0.005,3.088654523e-07
0.005020833333,4.147076709e-07
0.005041666667,5.133998116e-07
0.0050625,6.043899816e-07
0.005083333333,6.938094543e-07
0.005104166667,7.865085081e-07
0.005125,8.82782615e-07
0.005145833333,9.796169707e-07
0.005166666667,1.069220616e-06
0.0051875,1.151003175e-06
0.005208333333,1.225323899e-06
0.005229166667,1.300242275e-06
0.00525,1.379367291e-06
0.005270833333,1.463745093e-06
0.005291666667,1.548837304e-06
0.0053125,1.628159566e-06
0.005333333333,1.699578661e-06
0.005354166667,1.762966463e-06
0.005375,1.823396929e-06
0.005395833333,1.882785114e-06
0.005416666667,1.940731636e-06
0.0054375,1.993764045e-06
0.005458333333,2.035820444e-06
0.005479166667,2.067036576e-06
0.0055,2.08604115e-06
0.005520833333,2.099874109e-06
0.005541666667,2.109704383e-06
0.0055625,2.118949169e-06
0.005583333333,2.12554346e-06
0.005604166667,2.12617033e-06
0.005625,2.120059889e-06
0.005645833333,2.10497501e-06
0.005666666667,2.085232381e-06
0.0056875,2.062040721e-06
0.005708333333,2.03757827e-06
0.005729166667,2.010893922e-06
0.00575,1.976142357e-06
0.005770833333,1.931560973e-06
0.005791666667,1.871676886e-06
0.0058125,1.80181155e-06
0.005833333333,1.723637183e-06
0.005854166667,1.643797304e-06
0.005875,1.562109674e-06
0.005895833333,1.475361955e-06
0.005916666667,1.380269964e-06
0.0059375,1.273134671e-06
0.005958333333,1.159752742e-06
0.005979166667,1.044869464e-06
0.006,9.355855468e-07
0.006020833333,8.317035736e-07
0.006041666667,7.261646715e-07
0.0060625,6.138940307e-07
0.006083333333,4.875503805e-07
0.006104166667,3.545011111e-07
0.006125,2.180222651e-07
0.006145833333,8.700984466e-08
0.006166666667,-4.12529424e-08
0.0061875,-1.732742732e-07
0.006208333333,-3.150175303e-07
0.006229166667,-4.701865919e-07
0.00625,-6.295224466e-07
0.006270833333,-7.853943202e-07
0.006291666667,-9.291819651e-07
0.0063125,-1.062217507e-06
0.006333333333,-1.192668378e-06
0.006354166667,-1.325341145e-06
0.006375,-1.464748379e-06
0.006395833333,-1.60095351e-06
0.006416666667,-1.729917017e-06
0.0064375,-1.844013582e-06
0.006458333333,-1.949790203e-06
0.006479166667,-2.054120841e-06
0.0065,-2.164127409e-06
0.006520833333,-2.281512934e-06
0.006541666667,-2.397407798e-06
0.0065625,-2.506853662e-06
0.006583333333,-2.602324457e-06
0.006604166667,-2.687728056e-06
0.006625,-2.767876595e-06
0.006645833333,-2.845137487e-06
0.006666666667,-2.922010026e-06
0.0066875,-2.987767175e-06
0.006708333333,-3.041695663e-06
0.006729166667,-3.075591394e-06
0.00675,-3.095723514e-06
0.006770833333,-3.105709084e-06
0.006791666667,-3.11101644e-06
0.0068125,-3.115441586e-06
0.006833333333,-3.114040965e-06
0.006854166667,-3.106204986e-06
0.006875,-3.085663593e-06
0.006895833333,-3.054655281e-06
0.006916666667,-3.015629318e-06
0.0069375,-2.971738695e-06
0.006958333333,-2.92772711e-06
0.006979166667,-2.877045063e-06
0.007,-2.819173915e-06
0.007020833333,-2.742094921e-06
0.007041666667,-2.648323289e-06
0.0070625,-2.536855845e-06
0.007083333333,-2.416457392e-06
0.007104166667,-2.293598754e-06
0.007125,-2.166889317e-06
0.007145833333,-2.035723128e-06
0.007166666667,-1.889230248e-06
0.0071875,-1.729203063e-06
0.007208333333,-1.558406325e-06
0.007229166667,-1.38668463e-06
0.00725,-1.224541052e-06
0.007270833333,-1.066902087e-06
0.007291666667,-9.117807735e-07
0.0073125,-7.415003438e-07
0.007333333333,-5.574169677e-07
0.007354166667,-3.59591894e-07
0.007375,-1.608546256e-07
0.007395833333,3.071625798e-08
0.007416666667,2.188102428e-07
0.0074375,4.091404833e-07
0.007458333333,6.163704143e-07
0.007479166667,8.382417036e-07
0.0075,1.06839093e-06
0.007520833333,1.291789772e-06
0.007541666667,1.497105018e-06
0.0075625,1.689676765e-06
0.007583333333,1.87364526e-06
0.007604166667,2.066108209e-06
0.007625,2.261592726e-06
0.007645833333,2.457967184e-06
0.007666666667,2.639715603e-06
0.0076875,2.802806421e-06
0.007708333333,2.95338873e-06
0.007729166667,3.099616379e-06
0.00775,3.256183618e-06
0.007770833333,3.418540246e-06
0.007791666667,3.58234638e-06
0.0078125,3.734230631e-06
0.007833333333,3.867362466e-06
0.007854166667,3.987438049e-06
0.007875,4.095741588e-06
0.007895833333,4.205301593e-06
0.007916666667,4.307036306e-06
0.0079375,4.400596481e-06
0.007958333333,4.47209959e-06
0.007979166667,4.520105449e-06
0.008,4.547559456e-06
0.008020833333,4.559331046e-06
0.008041666667,4.567371434e-06
0.0080625,4.569291832e-06
0.008083333333,4.567812084e-06
0.008104166667,4.554098723e-06
0.008125,4.524883479e-06
0.008145833333,4.48191031e-06
0.008166666667,4.424137842e-06
0.0081875,4.364545475e-06
0.008208333333,4.297172381e-06
0.008229166667,4.22829271e-06
0.00825,4.142999387e-06
0.008270833333,4.037676717e-06
0.008291666667,3.907090559e-06
0.0083125,3.752648581e-06
0.008333333333,3.588122127e-06
0.008354166667,3.415288575e-06
0.008375,3.242549838e-06
0.008395833333,3.059212304e-06
0.008416666667,2.859271035e-06
0.0084375,2.640902039e-06
0.008458333333,2.405565965e-06
0.008479166667,2.173658004e-06
0.0085,1.946211341e-06
0.008520833333,1.733025329e-06
0.008541666667,1.515147915e-06
0.0085625,1.284528707e-06
0.008583333333,1.031991815e-06
0.008604166667,7.623875717e-07
0.008625,4.929791544e-07
0.008645833333,2.281627616e-07
0.008666666667,-2.676686428e-08
0.0086875,-2.89851954e-07
0.008708333333,-5.702009389e-07
0.008729166667,-8.709382087e-07
0.00875,-1.183567747e-06
0.008770833333,-1.483261826e-06
0.008791666667,-1.766891728e-06
0.0088125,-2.025404456e-06
0.008833333333,-2.281748721e-06
0.008854166667,-2.540553851e-06
0.008875,-2.808672889e-06
0.008895833333,-3.074894948e-06
0.008916666667,-3.321562644e-06
0.0089375,-3.547836513e-06
0.008958333333,-3.752421662e-06
0.008979166667,-3.957637091e-06
0.009,-4.170453394e-06
0.009020833333,-4.393591553e-06
0.009041666667,-4.618077128e-06
0.0090625,-4.82342648e-06
0.009083333333,-5.01105842e-06
0.009104166667,-5.17294211e-06
0.009125,-5.329450687e-06
0.009145833333,-5.478320418e-06
0.009166666667,-5.624061941e-06
0.0091875,-5.754628546e-06
0.009208333333,-5.857158612e-06
0.009229166667,-5.931474789e-06
0.00925,-5.974443866e-06
0.009270833333,-6.003538601e-06
0.009291666667,-6.022067282e-06
0.0093125,-6.037255389e-06
0.009333333333,-6.045776445e-06
0.009354166667,-6.036377727e-06
0.009375,-6.011282039e-06
0.009395833333,-5.960150702e-06
0.009416666667,-5.900137239e-06
0.0094375,-5.827695986e-06
0.009458333333,-5.754960057e-06
0.009479166667,-5.673139185e-06
0.0095,-5.572700047e-06
0.009520833333,-5.446364867e-06
0.009541666667,-5.282864549e-06
0.0095625,-5.095729193e-06
0.009583333333,-4.888873264e-06
0.009604166667,-4.678445748e-06
0.009625,-4.464247013e-06
0.009645833333,-4.235723736e-06
0.009666666667,-3.988935987e-06
0.0096875,-3.710040119e-06
0.009708333333,-3.419911991e-06
0.009729166667,-3.123310535e-06
0.00975,-2.843682978e-06
0.009770833333,-2.573717438e-06
0.009791666667,-2.301734639e-06
0.0098125,-2.01136595e-06
0.009833333333,-1.689159035e-06
0.009854166667,-1.351163405e-06
0.009875,-1.006507773e-06
0.009895833333,-6.758219229e-07
0.009916666667,-3.523643954e-07
0.0099375,-1.994634147e-08
0.009958333333,3.334598944e-07
0.009979166667,7.200806635e-07
0.01,1.120836828e-06
0.01002083333,1.522665229e-06
0.01004166667,1.880135187e-06
0.0100625,2.203677013e-06
0.01008333333,2.51221195e-06
0.01010416667,2.829772484e-06
0.010125,3.168841431e-06
0.01014583333,3.512141348e-06
0.01016666667,3.842063052e-06
0.0101875,4.137007181e-06
0.01020833333,4.404858828e-06
0.01022916667,4.66371057e-06
0.01025,4.929215265e-06
0.01027083333,5.215334113e-06
0.01029166667,5.501892701e-06
0.0103125,5.783112556e-06
0.01033333333,6.032399597e-06
0.01035416667,6.259527254e-06
0.010375,6.463023965e-06
0.01039583333,6.655131983e-06
0.01041666667,6.836688044e-06
0.0104375,6.995453077e-06
0.01045833333,7.133367035e-06
0.01047916667,7.238068974e-06
0.0105,7.31944283e-06
0.01052083333,7.382290278e-06
0.01054166667,7.430116511e-06
0.0105625,7.468855529e-06
0.01058333333,7.484652087e-06
0.01060416667,7.483925856e-06
0.010625,7.453464605e-06
0.01064583333,7.410865237e-06
0.01066666667,7.351791737e-06
0.0106875,7.289880614e-06
0.01070833333,7.221155556e-06
0.01072916667,7.13682266e-06
0.01075,7.029209428e-06
0.01077083333,6.879562989e-06
0.01079166667,6.6964908e-06
0.0108125,6.481609034e-06
0.01083333333,6.253285392e-06
0.01085416667,6.02486989e-06
0.010875,5.785226676e-06
0.01089583333,5.533832791e-06
0.01091666667,5.237008281e-06
0.0109375,4.910310963e-06
0.01095833333,4.552655355e-06
0.01097916667,4.203869139e-06
0.011,3.877188647e-06
0.01102083333,3.571756679e-06
0.01104166667,3.274271648e-06
0.0110625,2.943264917e-06
0.01108333333,2.576272891e-06
0.01110416667,2.172575478e-06
0.011125,1.760619739e-06
0.01114583333,1.364570835e-06
0.01116666667,9.801135548e-07
0.0111875,6.031528414e-07
0.01120833333,1.908554168e-07
0.01122916667,-2.481622232e-07
0.01125,-7.158694189e-07
0.01127083333,-1.174548856e-06
0.01129166667,-1.607218792e-06
0.0113125,-2.007684543e-06
0.01133333333,-2.387695758e-06
0.01135416667,-2.77270874e-06
0.011375,-3.160638471e-06
0.01139583333,-3.550532028e-06
0.01141666667,-3.9221718e-06
0.0114375,-4.267732038e-06
0.01145833333,-4.59966077e-06
0.01147916667,-4.921514119e-06
0.0115,-5.261684692e-06
0.01152083333,-5.59922637e-06
0.01154166667,-5.936271464e-06
0.0115625,-6.243043117e-06
0.01158333333,-6.522067451e-06
0.01160416667,-6.782327091e-06
0.011625,-7.029818789e-06
0.01164583333,-7.281409125e-06
0.01166666667,-7.521322459e-06
0.0116875,-7.737220585e-06
0.01170833333,-7.90924696e-06
0.01172916667,-8.031432117e-06
0.01175,-8.116739991e-06
0.01177083333,-8.175614312e-06
0.01179166667,-8.236893336e-06
0.0118125,-8.287447599e-06
0.01183333333,-8.339008673e-06
0.01185416667,-8.362149856e-06
0.011875,-8.353739759e-06
0.01189583333,-8.314599654e-06
0.01191666667,-8.245855497e-06
0.0119375,-8.171092304e-06
0.01195833333,-8.092478311e-06
0.01197916667,-8.0120044e-06
0.012,-7.913661648e-06
0.01202083333,-7.772465324e-06
0.01204166667,-7.584958894e-06
0.0120625,-7.343738162e-06
0.01208333333,-7.081016975e-06
0.01210416667,-6.796520665e-06
0.012125,-6.516757367e-06
0.01214583333,-6.229388418e-06
0.01216666667,-5.92655033e-06
0.0121875,-5.590265118e-06
0.01220833333,-5.227166639e-06
0.01222916667,-4.85361943e-06
0.01225,-4.484718829e-06
0.01227083333,-4.127266493e-06
0.01229166667,-3.765342626e-06
0.0123125,-3.385754098e-06
0.01233333333,-2.9844648e-06
0.01235416667,-2.551657872e-06
0.012375,-2.117362783e-06
0.01239583333,-1.680416972e-06
0.01241666667,-1.252183779e-06
0.0124375,-8.020400628e-07
0.01245833333,-3.331147695e-07
0.01247916667,1.623595978e-07
0.0125,6.628972642e-07
0.01252083333,1.143343638e-06
0.01254166667,1.597240043e-06
0.0125625,2.032577413e-06
0.01258333333,2.468485263e-06
0.01260416667,2.916953235e-06
0.012625,3.371721277e-06
0.01264583333,3.812404202e-06
0.01266666667,4.208522569e-06
0.0126875,4.573083515e-06
0.01270833333,4.908649771e-06
0.01272916667,5.258521924e-06
0.01275,5.625825452e-06
0.01277083333,6.020152796e-06
0.01279166667,6.397826837e-06
0.0128125,6.743410268e-06
0.01283333333,7.047721283e-06
0.01285416667,7.315389666e-06
0.012875,7.578982149e-06
0.01289583333,7.843001185e-06
0.01291666667,8.099998013e-06
0.0129375,8.333916412e-06
0.01295833333,8.518048162e-06
0.01297916667,8.654213161e-06
0.013,8.738556062e-06
0.01302083333,8.808835446e-06
0.01304166667,8.859942682e-06
0.0130625,8.911293662e-06
0.01308333333,8.943376088e-06
0.01310416667,8.947486094e-06
0.013125,8.92783828e-06
0.01314583333,8.879736015e-06
0.01316666667,8.815439287e-06
0.0131875,8.742742466e-06
0.01320833333,8.655988495e-06
0.01322916667,8.546012396e-06
0.01325,8.405641893e-06
0.01327083333,8.221108146e-06
0.01329166667,7.990525773e-06
0.0133125,7.751260455e-06
0.01333333333,7.481405646e-06
0.01335416667,7.205170732e-06
0.013375,6.904947895e-06
0.01339583333,6.5640711e-06
0.01341666667,6.185408893e-06
0.0134375,5.767773018e-06
0.01345833333,5.341145425e-06
0.01347916667,4.944451575e-06
0.0135,4.573505066e-06
0.01352083333,4.223134511e-06
0.01354166667,3.84899613e-06
0.0135625,3.433714255e-06
0.01358333333,2.956412573e-06
0.01360416667,2.456296897e-06
0.013625,1.957514542e-06
0.01364583333,1.501071779e-06
0.01366666667,1.068690267e-06
0.0136875,6.344423582e-07
0.01370833333,1.538045495e-07
0.01372916667,-3.814390084e-07
0.01375,-9.568530004e-07
0.01377083333,-1.533723093e-06
0.01379166667,-2.058836117e-06
0.0138125,-2.530809297e-06
0.01383333333,-2.957194738e-06
0.01385416667,-3.369503474e-06
0.013875,-3.809810778e-06
0.01389583333,-4.249992799e-06
0.01391666667,-4.697090844e-06
0.0139375,-5.121003142e-06
0.01395833333,-5.5209739e-06
0.01397916667,-5.899896223e-06
0.014,-6.266086075e-06
0.01402083333,-6.612909601e-06
0.01404166667,-6.944884262e-06
0.0140625,-7.263314728e-06
0.01408333333,-7.569036825e-06
0.01410416667,-7.876733434e-06
0.014125,-8.19861998e-06
0.01414583333,-8.510121006e-06
0.01416666667,-8.780762982e-06
0.0141875,-8.976335266e-06
0.01420833333,-9.088634215e-06
0.01422916667,-9.135953405e-06
0.01425,-9.184186638e-06
0.01427083333,-9.242035048e-06
0.01429166667,-9.339583812e-06
0.0143125,-9.434508684e-06
0.01433333333,-9.465118637e-06
0.01435416667,-9.405318451e-06
0.014375,-9.253722055e-06
0.01439583333,-9.078106814e-06
0.01441666667,-8.940398402e-06
0.0144375,-8.856733075e-06
0.01445833333,-8.838378562e-06
0.01447916667,-8.794866517e-06
0.0145,-8.680967767e-06
0.01452083333,-8.430080015e-06
0.01454166667,-8.068572242e-06
0.0145625,-7.648095561e-06
0.01458333333,-7.247523627e-06
0.01460416667,-6.901148481e-06
0.014625,-6.616545306e-06
0.01464583333,-6.327969004e-06
0.01466666667,-5.983405117e-06
0.0146875,-5.540176517e-06
0.01470833333,-5.012616384e-06
0.01472916667,-4.461781373e-06
0.01475,-3.953731266e-06
0.01477083333,-3.514826176e-06
0.01479166667,-3.13806413e-06
0.0148125,-2.762267286e-06
0.01483333333,-2.331791848e-06
0.01485416667,-1.795313096e-06
0.014875,-1.175853299e-06
0.01489583333,-5.493967592e-07
0.01491666667,4.786201657e-08
0.0149375,5.704134196e-07
0.01495833333,1.025663096e-06
0.01497916667,1.462698833e-06
0.015,1.918653879e-06
0.01502083333,2.445332711e-06
0.01504166667,3.029617346e-06
0.0150625,3.653285148e-06
0.01508333333,4.277575499e-06
0.01510416667,4.873593298e-06
0.015125,5.37698952e-06
0.01514583333,5.802328815e-06
0.01516666667,6.143736755e-06
0.0151875,6.464249509e-06
0.01520833333,6.79511777e-06
0.01522916667,7.174628081e-06
0.01525,7.5977091e-06
0.01527083333,8.038889973e-06
0.01529166667,8.440674719e-06
0.0153125,8.767797226e-06
0.01533333333,9.02813008e-06
0.01535416667,9.27099245e-06
0.015375,9.507598406e-06
0.01539583333,9.818433682e-06
0.01541666667,1.013688598e-05
0.0154375,1.04170731e-05
0.01545833333,1.058777798e-05
0.01547916667,1.0627753e-05
0.0155,1.056044403e-05
0.01552083333,1.044504097e-05
0.01554166667,1.036507456e-05
0.0155625,1.034170964e-05
0.01558333333,1.036446702e-05
0.01560416667,1.038489791e-05
0.015625,1.033293665e-05
0.01564583333,1.022334436e-05
0.01566666667,1.00427078e-05
0.0156875,9.840127859e-06
0.01570833333,9.634130038e-06
0.01572916667,9.442827832e-06
0.01575,9.206280083e-06
0.01577083333,8.910817087e-06
0.01579166667,8.543890544e-06
0.0158125,8.112935575e-06
0.01583333333,7.687932339e-06
0.01585416667,7.277878922e-06
0.015875,6.892251349e-06
0.01589583333,6.502414635e-06
0.01591666667,6.040492281e-06
0.0159375,5.526246241e-06
0.01595833333,4.931619515e-06
0.01597916667,4.355808869e-06
0.016,3.806342875e-06
0.01602083333,3.317258006e-06
0.01604166667,2.834583483e-06
0.0160625,2.334762257e-06
0.01608333333,1.756287361e-06
0.01610416667,1.097427116e-06
0.016125,4.399223599e-07
0.01614583333,-1.86051281e-07
0.01616666667,-7.270538163e-07
0.0161875,-1.231371698e-06
0.01620833333,-1.737803132e-06
0.01622916667,-2.286785957e-06
0.01625,-2.93290077e-06
0.01627083333,-3.627836577e-06
0.01629166667,-4.357270882e-06
0.0163125,-5.028152373e-06
0.01633333333,-5.626146958e-06
0.01635416667,-6.126760127e-06
0.016375,-6.558619589e-06
0.01639583333,-6.964668046e-06
0.01641666667,-7.352382909e-06
0.0164375,-7.776367056e-06
0.01645833333,-8.229199011e-06
0.01647916667,-8.740326848e-06
0.0165,-9.214129932e-06
0.01652083333,-9.623421647e-06
0.01654166667,-9.961823707e-06
0.0165625,-1.021846856e-05
0.01658333333,-1.049354523e-05
0.01660416667,-1.075347063e-05
0.016625,-1.111061465e-05
0.01664583333,-1.14566501e-05
0.01666666667,-1.176552723e-05
0.0166875,-1.195064124e-05
0.01670833333,-1.198077553e-05
0.01672916667,-1.192507352e-05
0.01675,-1.181436437e-05
0.01677083333,-1.174825229e-05
0.01679166667,-1.177465947e-05
0.0168125,-1.185205838e-05
0.01683333333,-1.189542127e-05
0.01685416667,-1.184172015e-05
0.016875,-1.164315108e-05
0.01689583333,-1.131168119e-05
0.01691666667,-1.096505639e-05
0.0169375,-1.064991011e-05
0.01695833333,-1.046147645e-05
0.01697916667,-1.033364242e-05
0.017,-1.02127251e-05
0.01702083333,-9.960478565e-06
0.01704166667,-9.532212061e-06
0.0170625,-8.969534065e-06
0.01708333333,-8.315825653e-06
0.01710416667,-7.712565093e-06
0.017125,-7.191741133e-06
0.01714583333,-6.750084594e-06
0.01716666667,-6.31680723e-06
0.0171875,-5.785089343e-06
0.01720833333,-5.164250069e-06
0.01722916667,-4.445395007e-06
0.01725,-3.735614428e-06
0.01727083333,-3.07341179e-06
0.01729166667,-2.505709745e-06
0.0173125,-1.992187435e-06
0.01733333333,-1.484347649e-06
0.01735416667,-9.215187333e-07
0.017375,-2.60600558e-07
0.01739583333,4.861343541e-07
0.01741666667,1.309508889e-06
0.0174375,2.15906266e-06
0.01745833333,2.946087307e-06
0.01747916667,3.655416322e-06
0.0175,4.256467491e-06
0.01752083333,4.74126773e-06
0.01754166667,5.239915481e-06
0.0175625,5.825166227e-06
0.01758333333,6.509629657e-06
0.01760416667,7.269640264e-06
0.017625,8.040887224e-06
0.01764583333,8.662865184e-06
0.01766666667,9.12969881e-06
0.0176875,9.479446817e-06
0.01770833333,9.814590157e-06
0.01772916667,1.021984372e-05
0.01775,1.073052772e-05
0.01777083333,1.130544388e-05
0.01779166667,1.179777064e-05
0.0178125,1.222668743e-05
0.01783333333,1.249288289e-05
0.01785416667,1.271728888e-05
0.017875,1.289985812e-05
0.01789583333,1.313606663e-05
0.01791666667,1.341068855e-05
0.0179375,1.368615995e-05
0.01795833333,1.394303672e-05
0.01797916667,1.410842924e-05
0.018,1.41615028e-05
0.01802083333,1.40887305e-05
0.01804166667,1.389155932e-05
0.0180625,1.370866448e-05
0.01808333333,1.348320438e-05
0.01810416667,1.334019635e-05
0.018125,1.32187879e-05
0.01814583333,1.313600569e-05
0.01816666667,1.30478802e-05
0.0181875,1.286072529e-05
0.01820833333,1.25835686e-05
0.01822916667,1.222212995e-05
0.01825,1.180839536e-05
0.01827083333,1.133491423e-05
0.01829166667,1.089005309e-05
0.0183125,1.041317591e-05
0.01833333333,9.950975254e-06
0.01835416667,9.506324204e-06
0.018375,8.939377039e-06
0.01839583333,8.336670362e-06
0.01841666667,7.624817044e-06
0.0184375,6.845438747e-06
0.01845833333,6.092953299e-06
0.01847916667,5.414648513e-06
0.0185,4.889889624e-06
0.01852083333,4.391240054e-06
0.01854166667,3.87286309e-06
0.0185625,3.159210337e-06
0.01858333333,2.345534995e-06
0.01860416667,1.432477234e-06
0.018625,5.176266313e-07
0.01864583333,-2.12816829e-07
0.01866666667,-8.377847962e-07
0.0186875,-1.371513349e-06
0.01870833333,-1.98610951e-06
0.01872916667,-2.709465662e-06
0.01875,-3.587232868e-06
0.01877083333,-4.497273494e-06
0.01879166667,-5.358667295e-06
0.0188125,-6.15069257e-06
0.01883333333,-6.736760497e-06
0.01885416667,-7.296437616e-06
0.018875,-7.810438547e-06
0.01889583333,-8.350338248e-06
0.01891666667,-8.982629879e-06
0.0189375,-9.607041648e-06
0.01895833333,-1.026905102e-05
0.01897916667,-1.086276279e-05
0.019,-1.137375784e-05
0.01902083333,-1.174122281e-05
0.01904166667,-1.207428704e-05
0.0190625,-1.239705125e-05
0.01908333333,-1.275878367e-05
0.01910416667,-1.32228206e-05
0.019125,-1.372152929e-05
0.01914583333,-1.417798921e-05
0.01916666667,-1.446711121e-05
0.0191875,-1.45892609e-05
0.01920833333,-1.45834083e-05
0.01922916667,-1.44803771e-05
0.01925,-1.452703327e-05
0.01927083333,-1.465016521e-05
0.01929166667,-1.485731991e-05
0.0193125,-1.504291595e-05
0.01933333333,-1.502321084e-05
0.01935416667,-1.478484228e-05
0.019375,-1.437116862e-05
0.01939583333,-1.391636033e-05
0.01941666667,-1.355795121e-05
0.0194375,-1.339913888e-05
0.01945833333,-1.339223491e-05
0.01947916667,-1.339134997e-05
0.0195,-1.32481573e-05
0.01952083333,-1.28146803e-05
0.01954166667,-1.218527086e-05
0.0195625,-1.13937167e-05
0.01958333333,-1.068246183e-05
0.01960416667,-1.011332097e-05
0.019625,-9.716980458e-06
0.01964583333,-9.387707905e-06
0.01966666667,-8.92195294e-06
0.0196875,-8.32047408e-06
0.01970833333,-7.440047739e-06
0.01972916667,-6.468234915e-06
0.01975,-5.5738019e-06
0.01977083333,-4.821069069e-06
0.01979166667,-4.39682708e-06
0.0198125,-4.037478448e-06
0.01983333333,-3.630298806e-06
0.01985416667,-2.983551667e-06
0.019875,-2.008154524e-06
0.01989583333,-7.92636456e-07
0.01991666667,4.190588072e-07
0.0199375,1.431553642e-06
0.01995833333,2.128674168e-06
0.01997916667,2.450131888e-06
0.02,2.697239097e-06
0.02002083333,3.237650162e-06
0.02004166667,4.043761692e-06
0.0200625,5.085100838e-06
0.02008333333,6.200592452e-06
0.02010416667,7.153145361e-06
0.020125,7.779804946e-06
0.02014583333,8.175817129e-06
0.02016666667,8.404684195e-06
0.0201875,8.825013538e-06
0.02020833333,9.53138715e-06
0.02022916667,1.038890605e-05
0.02025,1.132891521e-05
0.02027083333,1.200935458e-05
0.02029166667,1.2348788e-05
0.0203125,1.244456053e-05
0.02033333333,1.245051499e-05
0.02035416667,1.263886315e-05
0.020375,1.308738774e-05
0.02039583333,1.377543504e-05
0.02041666667,1.439970674e-05
0.0204375,1.493818218e-05
0.02045833333,1.520040496e-05
0.02047916667,1.517301189e-05
0.0205,1.503856856e-05
0.02052083333,1.488641556e-05
0.02054166667,1.488372072e-05
0.0205625,1.496091227e-05
0.02058333333,1.512413382e-05
0.02060416667,1.514838277e-05
0.020625,1.50888236e-05
0.02064583333,1.484393215e-05
0.02066666667,1.439119205e-05
0.0206875,1.404535124e-05
0.02070833333,1.369614438e-05
0.02072916667,1.351426454e-05
0.02075,1.337459526e-05
0.02077083333,1.308091487e-05
0.02079166667,1.264227649e-05
0.0208125,1.205982335e-05
0.02083333333,1.146147133e-05
0.02085416667,1.094071922e-05
0.020875,1.058091038e-05
0.02089583333,1.027127109e-05
0.02091666667,9.972820408e-06
0.0209375,9.600904377e-06
0.02095833333,9.094782399e-06
0.02097916667,8.39623317e-06
0.021,7.548490885e-06
0.02102083333,6.622319688e-06
0.02104166667,5.656260782e-06
0.0210625,4.805754543e-06
0.02108333333,3.906892289e-06
0.02110416667,3.047953214e-06
0.021125,2.316487553e-06
0.02114583333,1.494116304e-06
0.02116666667,6.365575018e-07
0.0211875,-4.674274692e-07
0.02120833333,-1.495880724e-06
0.02122916667,-2.426748097e-06
0.02125,-3.126557885e-06
0.02127083333,-3.559039214e-06
0.02129166667,-3.878499683e-06
0.0213125,-4.31140279e-06
0.02133333333,-4.917011665e-06
0.02135416667,-5.674151453e-06
0.021375,-6.485196991e-06
0.02139583333,-7.265579825e-06
0.02141666667,-7.998765795e-06
0.0214375,-8.636904568e-06
0.02145833333,-9.2419059e-06
0.02147916667,-9.985850738e-06
0.0215,-1.068300026e-05
0.02152083333,-1.13924616e-05
0.02154166667,-1.200516908e-05
0.0215625,-1.259174678e-05
0.02158333333,-1.321593845e-05
0.02160416667,-1.387297652e-05
0.021625,-1.446364513e-05
0.02164583333,-1.488628004e-05
0.02166666667,-1.519299622e-05
0.0216875,-1.52571838e-05
0.02170833333,-1.534477087e-05
0.02172916667,-1.545016494e-05
0.02175,-1.560598321e-05
0.02177083333,-1.570385575e-05
0.02179166667,-1.547587271e-05
0.0218125,-1.50551341e-05
0.02183333333,-1.453506411e-05
0.02185416667,-1.407254786e-05
0.021875,-1.393039747e-05
0.02189583333,-1.407645323e-05
0.02191666667,-1.447161958e-05
0.0219375,-1.508030346e-05
0.02195833333,-1.540109042e-05
0.02197916667,-1.552214962e-05
0.022,-1.535972115e-05
0.02202083333,-1.488046655e-05
0.02204166667,-1.42864983e-05
0.0220625,-1.379630521e-05
0.02208333333,-1.335305205e-05
0.02210416667,-1.316224916e-05
0.022125,-1.297867129e-05
0.02214583333,-1.244786199e-05
0.02216666667,-1.176856131e-05
0.0221875,-1.056555175e-05
0.02220833333,-9.059473086e-06
0.02222916667,-7.432171969e-06
0.02225,-5.898855306e-06
0.02227083333,-5.232386684e-06
0.02229166667,-5.358444469e-06
0.0223125,-6.014281553e-06
0.02233333333,-6.487609426e-06
0.02235416667,-6.243995358e-06
0.022375,-4.95180393e-06
0.02239583333,-2.831854999e-06
0.02241666667,-8.102885545e-07
0.0224375,3.173205982e-07
0.02245833333,2.856062338e-07
0.02247916667,-4.763103334e-07
0.0225,-9.882310223e-07
0.02252083333,-6.004343049e-07
0.02254166667,7.186823723e-07
0.0225625,2.488416612e-06
0.02258333333,4.188847925e-06
0.02260416667,5.434907507e-06
0.022625,6.240682069e-06
0.02264583333,6.864523584e-06
0.02266666667,7.599059245e-06
0.0226875,8.304141375e-06
0.02270833333,8.844076547e-06
0.02272916667,9.331222827e-06
0.02275,1.002272438e-05
0.02277083333,1.112616701e-05
0.02279166667,1.246654574e-05
0.0228125,1.356184293e-05
0.02283333333,1.422455534e-05
0.02285416667,1.405098283e-05
0.022875,1.345043802e-05
0.02289583333,1.32489331e-05
0.02291666667,1.371448525e-05
0.0229375,1.465119476e-05
0.02295833333,1.581533797e-05
0.02297916667,1.638271169e-05
0.023,1.625836558e-05
0.02302083333,1.571537905e-05
0.02304166667,1.525438256e-05
0.0230625,1.522657294e-05
0.02308333333,1.55026064e-05
0.02310416667,1.546083513e-05
0.023125,1.509262074e-05
0.02314583333,1.429121676e-05
0.02316666667,1.346203589e-05
0.0231875,1.261131274e-05
0.02320833333,1.269535369e-05
0.02322916667,1.279455319e-05
0.02325,1.302134206e-05
0.02327083333,1.296094342e-05
0.02329166667,1.268205324e-05
0.0233125,1.231908573e-05
0.02333333333,1.21541625e-05
0.02335416667,1.24385806e-05
0.023375,1.308589344e-05
0.02339583333,1.375176726e-05
0.02341666667,1.413033078e-05
0.0234375,1.394586252e-05
0.02345833333,1.336532296e-05
0.02347916667,1.216262353e-05
0.0235,1.085607983e-05
0.02352083333,9.07303729e-06
0.02354166667,7.254694538e-06
0.0235625,5.422047252e-06
0.02358333333,3.796150622e-06
0.02360416667,2.499940138e-06
0.023625,1.864439582e-06
0.02364583333,1.525714197e-06
0.02366666667,1.199791996e-06
0.0236875,5.56875932e-07
0.02370833333,-1.052815605e-06
0.02372916667,-2.977760687e-06
0.02375,-4.598799933e-06
0.02377083333,-5.571630936e-06
0.02379166667,-5.822199e-06
0.0238125,-5.774828423e-06
0.02383333333,-6.643113466e-06
0.02385416667,-8.047744814e-06
0.023875,-9.527669135e-06
0.02389583333,-1.075818182e-05
0.02391666667,-1.085844269e-05
0.0239375,-1.060193881e-05
0.02395833333,-1.040467669e-05
0.02397916667,-1.097185577e-05
0.024,-1.211306881e-05
0.02402083333,-1.342021824e-05
0.02404166667,-1.401225563e-05
0.0240625,-1.409880861e-05
0.02408333333,-1.386260737e-05
0.02410416667,-1.37319912e-05
0.024125,-1.424671973e-05
0.02414583333,-1.522328967e-05
0.02416666667,-1.652571882e-05
0.0241875,-1.804892054e-05
0.02420833333,-1.961404632e-05
0.02422916667,-2.129783752e-05
0.02425,-2.256773587e-05
0.02427083333,-2.32503553e-05
0.02429166667,-2.311063145e-05
0.0243125,-2.272272286e-05
0.02433333333,-2.225234857e-05
0.02435416667,-2.202733594e-05
0.024375,-2.22120525e-05
0.02439583333,-2.231770304e-05
0.02441666667,-2.180935189e-05
0.0244375,-2.112860784e-05
0.02445833333,-2.035533907e-05
0.02447916667,-1.996743595e-05
0.0245,-1.981008973e-05
0.02452083333,-1.960243389e-05
0.02454166667,-1.836536831e-05
0.0245625,-1.703543239e-05
0.02458333333,-1.528489884e-05
0.02460416667,-1.366640572e-05
0.024625,-1.230104226e-05
0.02464583333,-1.143022291e-05
0.02466666667,-1.076531044e-05
0.0246875,-1.044260898e-05
0.02470833333,-1.058444104e-05
0.02472916667,-1.117973261e-05
0.02475,-1.189981958e-05
0.02477083333,-1.229834561e-05
0.02479166667,-1.268616688e-05
0.0248125,-1.334813169e-05
0.02483333333,-1.444874943e-05
0.02485416667,-1.606888509e-05
0.024875,-1.752909338e-05
0.02489583333,-1.765809429e-05
0.02491666667,-1.567558138e-05
0.0249375,-1.250139121e-05
0.02495833333,-8.325212548e-06
0.02497916667,-4.355288638e-06
0.025,-8.107062968e-07
0.02502083333,2.389000656e-06
0.02504166667,5.101199804e-06
0.0250625,7.272683433e-06
0.02508333333,9.084540579e-06
0.02510416667,1.012338362e-05
0.025125,1.097995118e-05
0.02514583333,1.213308769e-05
0.02516666667,1.325599806e-05
0.0251875,1.359218732e-05
0.02520833333,1.338482616e-05
0.02522916667,1.161111322e-05
0.02525,1.05951367e-05
0.02527083333,1.03485072e-05
0.02529166667,1.106355376e-05
0.0253125,1.131053796e-05
0.02533333333,1.073450949e-05
0.02535416667,8.763845472e-06
0.025375,6.886014489e-06
0.02539583333,6.342432243e-06
0.02541666667,8.815084584e-06
0.0254375,1.294745744e-05
0.02545833333,1.805340253e-05
0.02547916667,2.106468673e-05
0.0255,2.21674909e-05
0.02552083333,2.139624485e-05
0.02554166667,2.103036968e-05
0.0255625,2.069814582e-05
0.02558333333,2.121619036e-05
0.02560416667,2.147628402e-05
0.025625,2.107072214e-05
0.02564583333,2.05918368e-05
0.02566666667,2.00640643e-05
0.0256875,1.940551192e-05
0.02570833333,1.771568168e-05
0.02572916667,1.390576472e-05
0.02575,9.722531104e-06
0.02577083333,6.067666618e-06
0.02579166667,5.047445484e-06
0.0258125,6.990325801e-06
0.02583333333,1.075793625e-05
0.02585416667,1.479049752e-05
0.025875,1.788727968e-05
0.02589583333,1.959216024e-05
0.02591666667,1.993998012e-05
0.0259375,1.951948616e-05
0.02595833333,2.001959729e-05
0.02597916667,1.940099901e-05
0.026,1.812300434e-05
0.02602083333,1.628883729e-05
0.02604166667,1.411215817e-05
0.0260625,1.075403361e-05
0.02608333333,7.484947673e-06
0.02610416667,3.814323463e-06
0.026125,1.308245373e-06
0.02614583333,-7.396297406e-07
0.02616666667,-1.465183004e-06
0.0261875,-2.327938091e-06
0.02620833333,-3.604945505e-06
0.02622916667,-5.941167274e-06
0.02625,-7.181116871e-06
0.02627083333,-7.445788015e-06
0.02629166667,-5.202975444e-06
0.0263125,-3.162328539e-06
0.02633333333,-1.477962769e-06
0.02635416667,-2.732576604e-06
0.026375,-4.556835847e-06
0.02639583333,-6.49061667e-06
0.02641666667,-6.293978004e-06
0.0264375,-5.918307579e-06
0.02645833333,-5.150840479e-06
0.02647916667,-7.251680017e-06
0.0265,-1.051637446e-05
0.02652083333,-1.459833038e-05
0.02654166667,-1.667630931e-05
0.0265625,-1.722599518e-05
0.02658333333,-1.697815605e-05
0.02660416667,-1.766616333e-05
0.026625,-1.941109986e-05
0.02664583333,-2.10045182e-05
0.02666666667,-2.010106255e-05
0.0266875,-1.793867341e-05
0.02670833333,-1.537060234e-05
0.02672916667,-1.530177906e-05
0.02675,-1.71597967e-05
0.02677083333,-1.93885935e-05
0.02679166667,-1.811265247e-05
0.0268125,-1.399306984e-05
0.02683333333,-8.307864846e-06
0.02685416667,-4.979302048e-06
0.026875,-6.008236596e-06
0.02689583333,-1.052960215e-05
0.02691666667,-1.568247717e-05
0.0269375,-1.956423512e-05
0.02695833333,-2.085478991e-05
0.02697916667,-2.25415115e-05
0.027,-2.506303099e-05
0.02702083333,-2.735710586e-05
0.02704166667,-2.588301322e-05
0.0270625,-2.16033186e-05
0.02708333333,-1.36708577e-05
0.02710416667,-6.622788533e-06
0.027125,-1.768080438e-06
0.02714583333,-6.917384781e-07
0.02716666667,-8.715901458e-07
0.0271875,-2.921415216e-07
0.02720833333,1.893613899e-06
0.02722916667,4.760066076e-06
0.02725,8.393336429e-06
0.02727083333,9.997765119e-06
0.02729166667,1.032674118e-05
0.0273125,6.896708783e-06
0.02733333333,8.747907145e-07
0.02735416667,-8.102532775e-06
0.027375,-1.597642949e-05
0.02739583333,-2.136334479e-05
0.02741666667,-2.081861385e-05
0.0274375,-1.689246346e-05
0.02745833333,-1.003395573e-05
0.02747916667,-5.319173397e-06
0.0275,-7.621290479e-07
0.02752083333,2.416463758e-06
0.02754166667,8.134247764e-06
0.0275625,1.38219375e-05
0.02758333333,1.9121675e-05
0.02760416667,1.985376184e-05
0.027625,1.910970605e-05
0.02764583333,2.005361239e-05
0.02766666667,2.469594256e-05
0.0276875,3.122165072e-05
0.02770833333,3.64657426e-05
0.02772916667,3.638652197e-05
0.02775,3.187413313e-05
0.02777083333,2.558747474e-05
0.02779166667,2.33744704e-05
0.0278125,2.481033152e-05
0.02783333333,2.840443813e-05
0.02785416667,2.625743946e-05
0.027875,1.757623977e-05
0.02789583333,6.8340496e-06
0.02791666667,2.192087777e-06
0.0279375,8.349044947e-06
0.02795833333,2.302074063e-05
0.02797916667,3.515242497e-05
0.028,3.782795102e-05
0.02802083333,3.187869879e-05
0.02804166667,2.118088742e-05
0.0280625,1.357452129e-05
0.02808333333,1.347085436e-05
0.02810416667,1.723987589e-05
0.028125,2.309932643e-05
0.02814583333,2.636495992e-05
0.02816666667,2.861415123e-05
0.0281875,2.915320874e-05
0.02820833333,2.695883632e-05
0.02822916667,1.875192356e-05
0.02825,4.714893294e-06
0.02827083333,-9.581925042e-06
0.02829166667,-1.615150177e-05
0.0283125,-1.030863496e-05
0.02833333333,6.696240689e-06
0.02835416667,2.581271838e-05
0.028375,4.120583617e-05
0.02839583333,4.509666906e-05
0.02841666667,4.037600593e-05
0.0284375,2.941675302e-05
0.02845833333,2.001922621e-05
0.02847916667,1.446650276e-05
0.0285,1.34058555e-05
0.02852083333,1.248471381e-05
0.02854166667,8.578505003e-06
0.0285625,1.205702347e-06
0.02858333333,-9.361146112e-06
0.02860416667,-2.170519474e-05
0.028625,-2.931407289e-05
0.02864583333,-2.909664545e-05
0.02866666667,-2.116754877e-05
0.0286875,-1.284416521e-05
0.02870833333,-1.178426828e-05
0.02872916667,-2.22771414e-05
0.02875,-4.013178841e-05
0.02877083333,-5.126451651e-05
0.02879166667,-5.20670219e-05
0.0288125,-4.059986532e-05
0.02883333333,-2.807892452e-05
0.02885416667,-2.461534314e-05
0.028875,-3.227774869e-05
0.02889583333,-4.462978177e-05
0.02891666667,-5.04894706e-05
0.0289375,-4.520433868e-05
0.02895833333,-3.47145542e-05
0.02897916667,-3.541584738e-05
0.029,-4.87521902e-05
0.02902083333,-6.152605056e-05
0.02904166667,-6.526774087e-05
0.0290625,-4.938979328e-05
0.02908333333,-2.926355228e-05
0.02910416667,-1.977517059e-05
0.029125,-3.63936997e-05
0.02914583333,-6.622711226e-05
0.02916666667,-9.038438293e-05
0.0291875,-9.555642464e-05
0.02920833333,-8.084625006e-05
0.02922916667,-6.905848568e-05
0.02925,-7.360957534e-05
0.02927083333,-9.477202548e-05
0.02929166667,-0.0001161842083
0.0293125,-0.0001173763885
0.02933333333,-9.748873708e-05
0.02935416667,-7.138295041e-05
0.029375,-6.608018157e-05
0.02939583333,-7.915191236e-05
0.02941666667,-9.35155258e-05
0.0294375,-9.18486985e-05
0.02945833333,-7.195695798e-05
0.02947916667,-6.178237527e-05
0.0295,-7.613682828e-05
0.02952083333,-0.0001194296419
0.02954166667,-0.0001623939606
0.0295625,-0.0001566993742
0.02958333333,-7.97197863e-05
0.02960416667,3.754122008e-05
0.029625,0.0001335885609
0.02964583333,0.0001558759104
0.02966666667,0.0001007518295
0.0296875,3.907167866e-06
0.02970833333,-7.179767272e-05
0.02972916667,-0.0001050883875
0.02975,-9.47544977e-05
0.02977083333,-8.118218102e-05
0.02979166667,-6.99046941e-05
0.0298125,-5.883035192e-05
0.02983333333,-3.01626842e-05
0.02985416667,-9.515231795e-06
0.029875,-3.56447199e-05
0.02989583333,-0.0001280972647
0.02991666667,-0.0002661782491
0.0299375,-0.0003866145853
0.02995833333,-0.0003713222104
0.02997916667,-0.0002526160097
0.03,0.0002522745926
0.03002083333,0.0003808015317
0.03004166667,0.0004054185119
0.0300625,0.0002906526206
0.03008333333,0.0001507118432
0.03010416667,5.580584548e-05
0.030125,2.339833918e-05
0.03014583333,4.261872891e-05
0.03016666667,7.028675464e-05
0.0301875,7.773510879e-05
0.03020833333,8.593910752e-05
0.03022916667,0.0001007530082
0.03025,0.0001142148467
0.03027083333,8.615688421e-05
0.03029166667,7.816708603e-06
0.0303125,-9.59816316e-05
0.03033333333,-0.0001580444368
0.03035416667,-0.0001371807011
0.030375,-3.116530934e-05
0.03039583333,0.0001031936772
0.03041666667,0.0001960545487
0.0304375,0.0002067019232
0.03045833333,0.0001620238472
0.03047916667,0.0001124356713
0.0305,9.818649414e-05
0.03052083333,0.0001073281674
0.03054166667,0.0001317200804
0.0305625,0.0001305066398
0.03058333333,0.0001098398352
0.03060416667,8.852751489e-05
0.030625,8.960958803e-05
0.03064583333,0.000116979114
0.03066666667,0.0001459415216
0.0306875,0.000148458319
0.03070833333,0.0001307682687
0.03072916667,0.0001081628579
0.03075,0.0001099962392
0.03077083333,0.0001242267463
0.03079166667,0.0001458507904
0.0308125,0.0001369900128
0.03083333333,0.0001064861426
0.03085416667,6.251191371e-05
0.030875,3.972930062e-05
0.03089583333,5.339101335e-05
0.03091666667,8.740977501e-05
0.0309375,0.0001122936446
0.03095833333,0.0001151838078
0.03097916667,9.406662139e-05
0.031,7.599154196e-05
0.03102083333,6.616322935e-05
0.03104166667,7.839157479e-05
0.0310625,8.156573313e-05
0.03108333333,7.843141793e-05
0.03110416667,6.447445048e-05
0.031125,6.17349433e-05
0.03114583333,7.396718865e-05
0.03116666667,9.913890244e-05
0.0311875,0.0001188022507
0.03120833333,0.0001217497629
0.03122916667,0.0001007674946
0.03125,7.31367254e-05
0.03127083333,5.278935714e-05
0.03129166667,5.675468128e-05
0.0313125,7.458582695e-05
0.03133333333,9.155797306e-05
0.03135416667,9.890929505e-05
0.031375,8.66857954e-05
0.03139583333,6.412398216e-05
0.03141666667,4.075980905e-05
0.0314375,2.25731801e-05
0.03145833333,1.27566891e-05
0.03147916667,8.402179446e-06
0.0315,9.340011275e-06
0.03152083333,4.177800292e-06
0.03154166667,-3.663050848e-06
0.0315625,-1.192901527e-05
0.03158333333,-1.11414256e-05
0.03160416667,1.235850505e-06
0.031625,2.20077618e-05
0.03164583333,5.491526099e-05
0.03166666667,8.050192264e-05
0.0316875,9.577215678e-05
0.03170833333,8.76705526e-05
0.03172916667,7.129269943e-05
0.03175,4.660250852e-05
0.03177083333,3.331463813e-05
0.03179166667,1.807265107e-05
0.0318125,1.218681336e-05
0.03183333333,4.763161087e-06
0.03185416667,9.140292605e-06
0.031875,1.791629074e-05
0.03189583333,3.507577276e-05
0.03191666667,4.618331513e-05
0.0319375,4.79248738e-05
0.03195833333,3.459737127e-05
0.03197916667,3.210299838e-05
0.032,3.47885034e-05
0.03202083333,5.436397987e-05
0.03204166667,7.342366007e-05
0.0320625,8.922398411e-05
0.03208333333,8.128404443e-05
0.03210416667,7.483952504e-05
0.032125,6.090139505e-05
0.03214583333,6.325228605e-05
0.03216666667,6.172880967e-05
0.0321875,5.461634282e-05
0.03220833333,3.02133958e-05
0.03222916667,9.613184375e-06
0.03225,-6.416528777e-06
0.03227083333,-2.124175808e-06
0.03229166667,1.390799298e-05
0.0323125,3.988890967e-05
0.03233333333,5.608754145e-05
0.03235416667,6.534972636e-05
0.032375,6.12731601e-05
0.03239583333,5.525631059e-05
0.03241666667,5.055608199e-05
0.0324375,5.436942592e-05
0.03245833333,5.46017036e-05
0.03247916667,6.412211951e-05
0.0325,8.067305316e-05
0.03252083333,0.0001015132075
0.03254166667,0.000122666097
0.0325625,0.0001358365262
0.03258333333,0.0001367732621
0.03260416667,0.0001181754269
0.032625,9.701134695e-05
0.03264583333,7.268863556e-05
0.03266666667,5.539895574e-05
0.0326875,4.528972204e-05
0.03270833333,4.715145405e-05
0.03272916667,5.561803118e-05
0.03275,7.129756705e-05
0.03277083333,7.300476136e-05
0.03279166667,8.28137272e-05
0.0328125,6.965617649e-05
0.03283333333,6.002632654e-05
0.03285416667,3.838118573e-05
0.032875,4.843014904e-05
0.03289583333,5.66900344e-05
0.03291666667,8.705118671e-05
0.0329375,9.396742826e-05
0.03295833333,0.0001125873532
0.03297916667,9.896307165e-05
0.033,9.64447463e-05
0.03302083333,7.752300735e-05
0.03304166667,6.952128751e-05
0.0330625,5.005224739e-05
0.03308333333,3.807880785e-05
0.03310416667,2.341292929e-05
0.033125,3.74993615e-05
0.03314583333,4.742848978e-05
0.03316666667,7.699681009e-05
0.0331875,8.551924111e-05
0.03320833333,9.133187268e-05
0.03322916667,7.278391422e-05
0.03325,6.266749551e-05
0.03327083333,4.98571826e-05
0.03329166667,6.44162792e-05
0.0333125,6.297446816e-05
0.03333333333,7.365370402e-05
0.03335416667,5.786234397e-05
0.033375,4.552422615e-05
0.03339583333,2.894322824e-05
0.03341666667,1.379846071e-05
0.0334375,5.64579841e-06
0.03345833333,-5.061710453e-06
0.03347916667,-1.184460507e-05
0.0335,-1.777357465e-05
0.03352083333,-1.927949052e-05
0.03354166667,-1.207441983e-05
0.0335625,1.36475478e-07
0.03358333333,7.222575732e-06
0.03360416667,6.172006579e-06
0.033625,8.017113942e-06
0.03364583333,8.846831406e-06
0.03366666667,1.535914998e-05
0.0336875,3.408078919e-05
0.03370833333,3.750841643e-05
0.03372916667,4.476116374e-05
0.03375,2.945996675e-05
0.03377083333,2.711889101e-05
0.03379166667,1.964044532e-05
0.0338125,1.652930769e-05
0.03383333333,8.34499042e-06
0.03385416667,-5.755362054e-07
0.033875,-1.467660695e-05
0.03389583333,-2.838291039e-05
0.03391666667,-5.401305316e-05
0.0339375,-5.552886432e-05
0.03395833333,-7.547785208e-05
0.03397916667,-7.082302909e-05
0.034,-8.665254427e-05
0.03402083333,-7.540696242e-05
0.03404166667,-8.095007797e-05
0.0340625,-7.852489944e-05
0.03408333333,-8.129505295e-05
0.03410416667,-7.128264406e-05
0.034125,-6.194262096e-05
0.03414583333,-3.838960401e-05
0.03416666667,-2.304500958e-05
0.0341875,-4.117964636e-07
0.03420833333,-4.723941856e-06
0.03422916667,-4.745365914e-06
0.03425,-1.713920938e-05
0.03427083333,-1.79875824e-05
0.03429166667,-2.82871697e-05
0.0343125,-2.649468479e-05
0.03433333333,-3.771953197e-05
0.03435416667,-4.904752859e-05
0.034375,-6.217077316e-05
0.03439583333,-6.624816888e-05
0.03441666667,-6.76319105e-05
0.0344375,-6.439072604e-05
0.03445833333,-6.348657189e-05
0.03447916667,-6.319723616e-05
0.0345,-5.703034185e-05
0.03452083333,-6.116688019e-05
0.03454166667,-5.003949627e-05
0.0345625,-4.318251013e-05
0.03458333333,-3.293126065e-05
0.03460416667,-4.024635564e-05
0.034625,-3.792395364e-05
0.03464583333,-5.242638144e-05
0.03466666667,-4.122005339e-05
0.0346875,-4.300521323e-05
0.03470833333,-3.597973773e-05
0.03472916667,-4.015435115e-05
0.03475,-4.091819937e-05
0.03477083333,-5.419238732e-05
0.03479166667,-5.048053572e-05
0.0348125,-5.479094762e-05
0.03483333333,-5.965722085e-05
0.03485416667,-5.863334081e-05
0.034875,-5.345444151e-05
0.03489583333,-6.92732574e-05
0.03491666667,-4.803994671e-05
0.0349375,-5.1166513e-05
0.03495833333,-3.535840005e-05
0.03497916667,-3.25988658e-05
0.035,-1.878383227e-05
0.03502083333,-2.706687883e-05
0.03504166667,-1.992062607e-05
0.0350625,-2.052574018e-05
0.03508333333,-7.825561624e-06
0.03510416667,-8.230381354e-06
0.035125,-3.28187889e-06
0.03514583333,-1.088081262e-05
0.03516666667,-1.077714842e-05
0.0351875,-2.935857992e-05
0.03520833333,-3.873307651e-05
0.03522916667,-5.524623703e-05
0.03525,-6.314866914e-05
0.03527083333,-7.049638225e-05
0.03529166667,-7.165424176e-05
0.0353125,-7.304798783e-05
0.03533333333,-6.924774789e-05
0.03535416667,-6.446595944e-05
0.035375,-6.218470662e-05
0.03539583333,-6.006898911e-05
0.03541666667,-5.636429705e-05
0.0354375,-6.023482274e-05
0.03545833333,-5.35527106e-05
0.03547916667,-5.554541713e-05
0.0355,-4.84514494e-05
0.03552083333,-4.657190584e-05
0.03554166667,-4.480340795e-05
0.0355625,-5.466844596e-05
0.03558333333,-7.060112694e-05
0.03560416667,-8.025683928e-05
0.035625,-8.760987839e-05
0.03564583333,-7.282396837e-05
0.03566666667,-6.840145215e-05
0.0356875,-6.500325981e-05
0.03570833333,-7.339297736e-05
0.03572916667,-7.735306281e-05
0.03575,-8.406829147e-05
0.03577083333,-7.944303798e-05
0.03579166667,-8.297858585e-05
0.0358125,-8.790968423e-05
0.03583333333,-0.0001032105647
0.03585416667,-0.0001096218984
0.035875,-0.0001146751092
0.03589583333,-0.0001031403663
0.03591666667,-9.528701776e-05
0.0359375,-8.171299123e-05
0.03595833333,-8.41895453e-05
0.03597916667,-8.914743375e-05
0.036,-9.66223015e-05
0.03602083333,-9.528966621e-05
0.03604166667,-9.643869998e-05
0.0360625,-8.857555076e-05
0.03608333333,-9.626740939e-05
0.03610416667,-9.18312071e-05
0.036125,-8.352938312e-05
0.03614583333,-6.224144454e-05
0.03616666667,-4.930230352e-05
0.0361875,-4.078276834e-05
0.03620833333,-5.491460979e-05
0.03622916667,-8.054646605e-05
0.03625,-0.0001090108854
0.03627083333,-0.0001212390198
0.03629166667,-0.0001253718219
0.0363125,-0.0001210784976
0.03633333333,-0.0001200731786
0.03635416667,-0.0001240040001
0.036375,-0.0001330499945
0.03639583333,-0.0001511317532
0.03641666667,-0.000158387571
0.0364375,-0.0001777754223
0.03645833333,-0.0001959467045
0.03647916667,-0.0002105037856
0.0365,-0.0002192193206
0.03652083333,-0.0002170414664
0.03654166667,-0.0002030614414
0.0365625,-0.0001939936046
0.03658333333,-0.0001760876039
0.03660416667,-0.0001692444057
0.036625,-0.0001504355168
0.03664583333,-0.0001448882103
0.03666666667,-0.0001408792305
0.0366875,-0.0001443795045
0.03670833333,-0.0001479197963
0.03672916667,-0.0001622032432
0.03675,-0.0001652228093
0.03677083333,-0.00016742562
0.03679166667,-0.0001521784434
0.0368125,-0.0001513770985
0.03683333333,-0.0001560101518
0.03685416667,-0.0001759304287
0.036875,-0.0002007545845
0.03689583333,-0.0002324657544
0.03691666667,-0.000241610891
0.0369375,-0.0002585439652
0.03695833333,-0.0002459730604
0.03697916667,-0.0002462963166
0.037,-0.0002357868652
0.03702083333,-0.0002255244035
0.03704166667,-0.0002100253769
0.0370625,-0.0002024466812
0.03708333333,-0.0001965007395
0.03710416667,-0.000215903885
0.037125,-0.0002335814352
0.03714583333,-0.0002410025045
0.03716666667,-0.0002383074316
0.0371875,-0.0002200214221
0.03720833333,-0.0002059838298
0.03722916667,-0.000200760318
0.03725,-0.0002044324938
0.03727083333,-0.0002201917378
0.03729166667,-0.0002293880971
0.0373125,-0.0002273214195
0.03733333333,-0.0002330893622
0.03735416667,-0.0002254562423
0.037375,-0.0002546872129
0.03739583333,-0.0002662420738
0.03741666667,-0.0002790916478
0.0374375,-0.000267455529
0.03745833333,-0.0002578027197
0.03747916667,-0.0002519605914
0.0375,-0.0002585764742
0.03752083333,-0.0002645130735
0.03754166667,-0.0002776698966
0.0375625,-0.0002653859556
0.03758333333,-0.0002525876334
0.03760416667,-0.0002347867267
0.037625,-0.0002322913206
0.03764583333,-0.0002279641922
0.03766666667,-0.0002555663523
0.0376875,-0.0002570005017
0.03770833333,-0.0002639473823
0.03772916667,-0.0002444246493
0.03775,-0.0002247400407
0.03777083333,-0.0002121266734
0.03779166667,-0.000202373616
0.0378125,-0.0002018573869
0.03783333333,-0.0002141268196
0.03785416667,-0.0002193304827
0.037875,-0.0002414106566
0.03789583333,-0.0002446015715
0.03791666667,-0.0002539429988
0.0379375,-0.000259203458
0.03795833333,-0.0002630569506
0.03797916667,-0.0002598205174
0.038,-0.0002588072966
0.03802083333,-0.0002632770338
0.03804166667,-0.0002769072016
0.0380625,-0.0002988227352
0.03808333333,-0.0003080542083
0.03810416667,-0.0003112278064
0.038125,-0.0003008673084
0.03814583333,-0.0002756292233
0.03816666667,-0.0002429113665
0.0381875,-0.000215459062
0.03820833333,-0.000203868025
0.03822916667,-0.0002070847549
0.03825,-0.0002244139032
0.03827083333,-0.0002469205065
0.03829166667,-0.0002617521386
0.0383125,-0.0002886507427
0.03833333333,-0.0002958299301
0.03835416667,-0.000306954229
0.038375,-0.0003241360537
0.03839583333,-0.0003374597582
0.03841666667,-0.0003398213303
0.0384375,-0.0003401325666
0.03845833333,-0.0003398177214
0.03847916667,-0.0003596901079
0.0385,-0.0003719756205
0.03852083333,-0.0003829714842
0.03854166667,-0.0003811627685
0.0385625,-0.0003801867424
0.03858333333,-0.0003761455882
0.03860416667,-0.0003778667015
0.038625,-0.0003726103168
0.03864583333,-0.0003793024516
0.03866666667,-0.0003722627589
0.0386875,-0.000367536908
0.03870833333,-0.0003615553724
0.03872916667,-0.0003539205354
0.03875,-0.0003517661826
0.03877083333,-0.0003596268361
0.03879166667,-0.0003506260109
0.0388125,-0.0003634098102
0.03883333333,-0.0003677885979
0.03885416667,-0.0003935302957
0.038875,-0.0004060853389
0.03889583333,-0.0004354221746
0.03891666667,-0.0004560299858
0.0389375,-0.0004681638675
0.03895833333,-0.0005018129596
0.03897916667,-0.000515818072
0.039,-0.0005326141254
0.03902083333,-0.000560080749
0.03904166667,-0.0005725075607
0.0390625,-0.0005808662972
0.03908333333,-0.0005604689941
0.03910416667,-0.0005485313013
0.039125,-0.0005011999165
0.03914583333,-0.0004776880087
0.03916666667,-0.0004353623081
0.0391875,-0.0004089518334
0.03920833333,-0.000402171223
0.03922916667,-0.0004227923637
0.03925,-0.0004439636541
0.03927083333,-0.0004771658569
0.03929166667,-0.000496045046
0.0393125,-0.0005167367635
0.03933333333,-0.0005248501548
0.03935416667,-0.000532650738
0.039375,-0.0005549670896
0.03939583333,-0.0005716873566
0.03941666667,-0.0005899916287
0.0394375,-0.0005871624453
0.03945833333,-0.0006000190042
0.03947916667,-0.0006029945216
0.0395,-0.000614304503
0.03952083333,-0.0005914660869
0.03954166667,-0.0005716005107
0.0395625,-0.0005366989062
0.03958333333,-0.0005307734828
0.03960416667,-0.0005253556301
0.039625,-0.0005530373892
0.03964583333,-0.0005674388376
0.03966666667,-0.0005948893377
0.0396875,-0.0005878164084
0.03970833333,-0.0006035355618
0.03972916667,-0.0005850081798
0.03975,-0.0005863930564
0.03977083333,-0.0005722321221
0.03979166667,-0.0005836500786
0.0398125,-0.0005754320882
0.03983333333,-0.0005865780404
0.03985416667,-0.0005709418328
0.039875,-0.0005904057762
0.03989583333,-0.0005867090658
0.03991666667,-0.0006043511094
0.0399375,-0.0006007133634
0.03995833333,-0.0006074142875
0.03997916667,-0.00061103591
0.04,-0.0006452639354
0.04002083333,-0.0006601111963
0.04004166667,-0.0006757319788
0.0400625,-0.0006728786975
0.04008333333,-0.0006580592599
0.04010416667,-0.0006347681629
0.040125,-0.0006430138601
0.04014583333,-0.0006502452889
0.04016666667,-0.0006749719614
0.0401875,-0.0006965284701
0.04020833333,-0.0007084214012
0.04022916667,-0.0007139999652
0.04025,-0.0007385510253
0.04027083333,-0.0007565520937
0.04029166667,-0.0007598851807
0.0403125,-0.0007550127339
0.04033333333,-0.0007542395033
0.04035416667,-0.0007546303677
0.040375,-0.0007677076501
0.04039583333,-0.0007805795758
0.04041666667,-0.0007767695934
0.0404375,-0.000771818799
0.04045833333,-0.0007446617237
0.04047916667,-0.0007271396462
0.0405,-0.0007035429007
0.04052083333,-0.0007162204711
0.04054166667,-0.0007134609623
0.0405625,-0.0007485336973
0.04058333333,-0.0007627122686
0.04060416667,-0.0008030214231
0.040625,-0.0008222449687
0.04064583333,-0.0008563883603
0.04066666667,-0.0008563066367
0.0406875,-0.0008747999091
0.04070833333,-0.0008486713632
0.04072916667,-0.0008550743223
0.04075,-0.0008297315217
0.04077083333,-0.0008462960832
0.04079166667,-0.0008402602398
0.0408125,-0.0008524281438
0.04083333333,-0.0008296970627
0.04085416667,-0.0008168664644
0.040875,-0.0007725909818
0.04089583333,-0.0007216832018
0.04091666667,-0.0006740943063
0.0409375,-0.0006525333156
0.04095833333,-0.0006398034166
0.04097916667,-0.0006605674862
0.041,-0.0006725286948
0.04102083333,-0.000703267986
0.04104166667,-0.0007331598317
0.0410625,-0.0007526464178
0.04108333333,-0.0007476952742
0.04110416667,-0.0007474549348
0.041125,-0.0007253857329
0.04114583333,-0.0007328604697
0.04116666667,-0.0007433831342
0.0411875,-0.000773534819
0.04120833333,-0.0008034420316
0.04122916667,-0.0008298714529
0.04125,-0.0008606096962
0.04127083333,-0.0008529748302
0.04129166667,-0.0008361077635
0.0413125,-0.0008066788432
0.04133333333,-0.0007672966458
0.04135416667,-0.0007422794588
0.041375,-0.0007246648893
0.04139583333,-0.0007358976291
0.04141666667,-0.0007589027518
0.0414375,-0.0007784221089
0.04145833333,-0.0008143058512
0.04147916667,-0.0008135550306
0.0415,-0.0008371225558
0.04152083333,-0.0008247881779
0.04154166667,-0.0008623769972
0.0415625,-0.0008765569655
0.04158333333,-0.0009022731101
0.04160416667,-0.0009069900843
0.041625,-0.0009514003759
0.04164583333,-0.0009517683648
0.04166666667,-0.0009833540535
0.0416875,-0.0009679585346
0.04170833333,-0.0009694884648
0.04172916667,-0.000946472981
0.04175,-0.0009281551465
0.04177083333,-0.0009133961867
0.04179166667,-0.000918483478
0.0418125,-0.0009202680085
0.04183333333,-0.000933479052
0.04185416667,-0.0009327738662
0.041875,-0.0009511429816
0.04189583333,-0.0009432102088
0.04191666667,-0.0009655736503
0.0419375,-0.0009910967201
0.04195833333,-0.001007792074
0.04197916667,-0.001008842373
0.042,-0.00101676269
0.04202083333,-0.000995505834
0.04204166667,-0.0009873157833
0.0420625,-0.0009713313193
0.04208333333,-0.0009599778568
0.04210416667,-0.0009620694909
0.042125,-0.0009542108164
0.04214583333,-0.0009495221311
0.04216666667,-0.0009537480073
0.0421875,-0.0009598062024
0.04220833333,-0.0009967694059
0.04222916667,-0.0009827797767
0.04225,-0.0009729351732
0.04227083333,-0.0009183548973
0.04229166667,-0.0008856188506
0.0423125,-0.0008697094745
0.04233333333,-0.0008635440026
0.04235416667,-0.0008817400667
0.042375,-0.0008707440575
0.04239583333,-0.0008588237106
0.04241666667,-0.0008294674335
0.0424375,-0.0007823350024
0.04245833333,-0.0007502742228
0.04247916667,-0.0007208181196
0.0425,-0.0006812695065
0.04252083333,-0.0006712343893
0.04254166667,-0.0006402144791
0.0425625,-0.0006251567393
0.04258333333,-0.0005709876423
0.04260416667,-0.0005719447508
0.042625,-0.0005309393746
0.04264583333,-0.0005255598226
0.04266666667,-0.0004719362769
0.0426875,-0.00047376976
0.04270833333,-0.0004329482617
0.04272916667,-0.0004380111059
0.04275,-0.0004223001015
0.04277083333,-0.0004360296589
0.04279166667,-0.0004388534871
0.0428125,-0.0004373964039
0.04283333333,-0.0003974355059
0.04285416667,-0.0004105665721
0.042875,-0.000332951633
0.04289583333,-0.0003461199522
0.04291666667,-0.0003103689232
0.0429375,-0.0002571926743
0.04295833333,-0.0002231224789
0.04297916667,-0.000181998781
0.043,-0.00015840985
0.04302083333,-0.0001338342408
0.04304166667,-0.0001433605648
0.0430625,-0.0001340736053
0.04308333333,-0.0001098544017
0.04310416667,-0.00011748416
0.043125,-9.309985035e-05
0.04314583333,-0.0001135685889
0.04316666667,-0.0001081690061
0.0431875,-0.0001225070446
0.04320833333,-0.0001220135746
0.04322916667,-0.0001372114057
0.04325,-0.0001388877427
0.04327083333,-0.0001379470341
0.04329166667,-0.0001335413544
0.0433125,-9.791468619e-05
0.04333333333,-7.090532745e-05
0.04335416667,-3.37754791e-05
0.043375,-3.528709203e-05
0.04339583333,-3.792142161e-05
0.04341666667,-6.393254444e-05
0.0434375,-7.744714094e-05
0.04345833333,-0.0001170517644
0.04347916667,-0.0001195845834
0.0435,-0.0001514358155
0.04352083333,-0.0001705391624
0.04354166667,-0.0002340030624
0.0435625,-0.0002461378754
0.04358333333,-0.0002746185928
0.04360416667,-0.0002241432376
0.043625,-0.0002213809348
0.04364583333,-0.0001801846811
0.04366666667,-0.0001983957918
0.0436875,-0.0001824022474
0.04370833333,-0.0001744264446
0.04372916667,-0.0001349051454
0.04375,-0.0001268350752
0.04377083333,-9.349285392e-05
0.04379166667,-0.0001280623401
0.0438125,-0.0001353668049
0.04383333333,-0.000198292546
0.04385416667,-0.0001969394361
0.043875,-0.0002254077117
0.04389583333,-0.0001970572339
0.04391666667,-0.0002448921732
0.0439375,-0.0002651342365
0.04395833333,-0.000347795547
0.04397916667,-0.0003909168008
0.044,-0.0004236400709
0.04402083333,-0.000435844122
0.04404166667,-0.000460026873
0.0440625,-0.0004624401627
0.04408333333,-0.0004788189835
0.04410416667,-0.0004616327351
0.044125,-0.0004879679473
0.04414583333,-0.0004786084464
0.04416666667,-0.0005005329149
0.0441875,-0.0005121550057
0.04420833333,-0.0005204160116
0.04422916667,-0.0005038156523
0.04425,-0.0004722387239
0.04427083333,-0.0004129537847
0.04429166667,-0.0003737226361
0.0443125,-0.0003325859725
0.04433333333,-0.0003168712428
0.04435416667,-0.0003360182745
0.044375,-0.0003507090441
0.04439583333,-0.0003933527914
0.04441666667,-0.0004200500262
0.0444375,-0.0004397727898
0.04445833333,-0.0004141424433
0.04447916667,-0.0004009607364
0.0445,-0.0003684377589
0.04452083333,-0.0003749776515
0.04454166667,-0.0003502735344
0.0445625,-0.0003525745124
0.04458333333,-0.0003126271477
0.04460416667,-0.0003062839678
0.044625,-0.0002649262897
0.04464583333,-0.0002649260859
0.04466666667,-0.0002130314388
0.0446875,-0.0001556965726
0.04470833333,-0.0001103319737
0.04472916667,-8.620803419e-05
0.04475,-4.964524851e-05
0.04477083333,-6.322635454e-05
0.04479166667,-1.891123975e-05
0.0448125,-2.903832865e-05
0.04483333333,-1.637095556e-05
0.04485416667,-2.932640655e-06
0.044875,6.588168617e-06
0.04489583333,3.667597412e-05
0.04491666667,0.0001054944369
0.0449375,0.000154386842
0.04495833333,0.0002148630447
0.04497916667,0.0001996938081
0.045,0.0002419694647
0.04502083333,0.0002702014463
0.04504166667,0.0003101651964
0.0450625,0.0003508088994
0.04508333333,0.0003907068167
0.04510416667,0.0004404109204
0.045125,0.000480577728
0.04514583333,0.0005008888547
0.04516666667,0.0005184966722
0.0451875,0.0005665500648
0.04520833333,0.0006372246426
0.04522916667,0.000690173998
0.04525,0.0007500296924
0.04527083333,0.0008004655247
0.04529166667,0.0008490905166
0.0453125,0.0009065757622
0.04533333333,0.0009708732832
0.04535416667,0.001050021616
0.045375,0.001124587026
0.04539583333,0.001214931021
0.04541666667,0.001276232884
0.0454375,0.001340194256
0.04545833333,0.001380990609
0.04547916667,0.001422689529
0.0455,0.001439653221
0.04552083333,0.001484294655
0.04554166667,0.0014880409
0.0455625,0.00152839534
0.04558333333,0.001525973319
0.04560416667,0.00151529233
0.045625,0.00147902756
0.04564583333,0.001468767878
0.04566666667,0.001467732596
0.0456875,0.001523557468
0.04570833333,0.001543531311
0.04572916667,0.001602086239
0.04575,0.001645025099
0.04577083333,0.001716647879
0.04579166667,0.001769427909
0.0458125,0.001842010999
0.04583333333,0.001901709125
0.04585416667,0.001969968202
0.045875,0.002005417598
0.04589583333,0.002046800684
0.04591666667,0.002055054763
0.0459375,0.002056114143
0.04595833333,0.002013920806
0.04597916667,0.001975004561
0.046,0.001915527275
0.04602083333,0.001873194356
0.04604166667,0.001820121426
0.0460625,0.001768103102
0.04608333333,0.001735449652
0.04610416667,0.001750837662
0.046125,0.001767351292
0.04614583333,0.001784056542
0.04616666667,0.001796178054
0.0461875,0.00178452977
0.04620833333,0.00178231881
0.04622916667,0.001781241037
0.04625,0.001777932979
0.04627083333,0.0018074197
0.04629166667,0.001826750813
0.0463125,0.001849641325
0.04633333333,0.001857792609
0.04635416667,0.001827421365
0.046375,0.001773931202
0.04639583333,0.00170966005
0.04641666667,0.001682400936
0.0464375,0.001651263679
0.04645833333,0.00165713043
0.04647916667,0.001646180986
0.0465,0.001668827608
0.04652083333,0.001685417723
0.04654166667,0.001671983977
0.0465625,0.001646936638
0.04658333333,0.001621652045
0.04660416667,0.001607261132
0.046625,0.001590836444
0.04664583333,0.001563575002
0.04666666667,0.00156027521
0.0466875,0.001533289207
0.04670833333,0.001520423917
0.04672916667,0.001503428444
0.04675,0.001531755552
0.04677083333,0.001540745725
0.04679166667,0.001575678703
0.0468125,0.001592467655
0.04683333333,0.001591716427
0.04685416667,0.001601479482
0.046875,0.001618994749
0.04689583333,0.001621451462
0.04691666667,0.001619092305
0.0469375,0.001584757469
0.04695833333,0.00157637964
0.04697916667,0.001559987548
0.047,0.001559273573
0.04702083333,0.001537181437
0.04704166667,0.001541410806
0.0470625,0.001541195088
0.04708333333,0.001538322889
0.04710416667,0.001521256752
0.047125,0.001494933967
0.04714583333,0.001488714479
0.04716666667,0.001465447014
0.0471875,0.00147499796
0.04720833333,0.001497496618
0.04722916667,0.00152792118
0.04725,0.001586945145
0.04727083333,0.001631937455
0.04729166667,0.001656482113
0.0473125,0.001671617618
0.04733333333,0.00168054644
0.04735416667,0.001719880267
0.047375,0.001742200926
0.04739583333,0.001783827785
0.04741666667,0.001805783482
0.0474375,0.001822854858
0.04745833333,0.001837621676
0.04747916667,0.001889881445
0.0475,0.001913336921
0.04752083333,0.001956002088
0.04754166667,0.001988615375
0.0475625,0.00204075966
0.04758333333,0.002075733384
0.04760416667,0.002098739846
0.047625,0.002097099554
0.04764583333,0.002105453983
0.04766666667,0.00211011013
0.0476875,0.002167628845
0.04770833333,0.002196069807
0.04772916667,0.002277922118
0.04775,0.002307910472
0.04777083333,0.002331832889
0.04779166667,0.002317172242
0.0478125,0.002302174922
0.04783333333,0.0023263318
0.04785416667,0.002367585897
0.047875,0.002383689862
0.04789583333,0.002425556071
0.04791666667,0.002419076161
0.0479375,0.002474209294
0.04795833333,0.002491068561
0.04797916667,0.002541125985
0.048,0.002566644223
0.04802083333,0.002570802113
0.04804166667,0.002560548019
0.0480625,0.002521846909
0.04808333333,0.002499987371
0.04810416667,0.002483762335
0.048125,0.002485956065
0.04814583333,0.002504388802
0.04816666667,0.002531936858
0.0481875,0.002552815014
0.04820833333,0.002568183467
0.04822916667,0.002549441997
0.04825,0.002519381698
0.04827083333,0.002482038923
0.04829166667,0.002446952043
0.0483125,0.002426884603
0.04833333333,0.002415067516
0.04835416667,0.002388137393
0.048375,0.002392272931
0.04839583333,0.002429104643
0.04841666667,0.002453796333
0.0484375,0.002455720911
0.04845833333,0.002490133513
0.04847916667,0.002461406402
0.0485,0.002471141517
0.04852083333,0.002447676146
0.04854166667,0.002430761233
0.0485625,0.002388943918
0.04858333333,0.002399641322
0.04860416667,0.002420540201
0.048625,0.002466982463
0.04864583333,0.002463666722
0.04866666667,0.00248980429
0.0486875,0.002501161303
0.04870833333,0.002500508446
0.04872916667,0.00254810648
0.04875,0.002581085078
0.04877083333,0.002579566557
0.04879166667,0.002588791307
0.0488125,0.002562613459
0.04883333333,0.002571789781
0.04885416667,0.002531206934
0.048875,0.002515101805
0.04889583333,0.002448505256
0.04891666667,0.00238883472
0.0489375,0.002283733105
0.04895833333,0.002217057161
0.04897916667,0.002138233976
0.049,0.002073025797
0.04902083333,0.002039144281
0.04904166667,0.002018887317
0.0490625,0.00203449931
0.04908333333,0.002045793459
0.04910416667,0.002069404814
0.049125,0.002093419665
0.04914583333,0.00213307282
0.04916666667,0.00216236664
0.0491875,0.002208662219
0.04920833333,0.002232136671
0.04922916667,0.00229690643
0.04925,0.002340510953
0.04927083333,0.002366479486
0.04929166667,0.002348205773
0.0493125,0.002336141188
0.04933333333,0.002333526034
0.04935416667,0.002370652044
0.049375,0.002408656524
0.04939583333,0.002460433403
0.04941666667,0.002477272879
0.0494375,0.002504390432
0.04945833333,0.002497051377
0.04947916667,0.002556319581
0.0495,0.002662835177
0.04952083333,0.002807314275
0.04954166667,0.002899985295
0.0495625,0.003003041027
0.04958333333,0.003022340126
0.04960416667,0.003076144494
0.049625,0.003117018845
0.04964583333,0.003208243521
0.04966666667,0.003239785321
0.0496875,0.003281075973
0.04970833333,0.003217628226
0.04972916667,0.003193060867
0.04975,0.003109228099
0.04977083333,0.003112242091
0.04979166667,0.003149779513
0.0498125,0.003197954269
0.04983333333,0.003210296854
0.04985416667,0.003252601949
0.049875,0.003258125391
0.04989583333,0.00329258712
0.04991666667,0.003339963034
0.0499375,0.00339695951
0.04995833333,0.003469467629
0.04997916667,0.003521212842
0.05,0.003527956549
0.05002083333,0.003578504082
0.05004166667,0.003591665532
0.0500625,0.003650262719
0.05008333333,0.003709873417
0.05010416667,0.003743494861
0.050125,0.003778434359
0.05014583333,0.003783930792
0.05016666667,0.003825180698
0.0501875,0.003839147277
0.05020833333,0.003871673252
0.05022916667,0.003901310498
0.05025,0.003919196781
0.05027083333,0.0039711711
0.05029166667,0.004020550288
0.0503125,0.004068216775
0.05033333333,0.004093778785
0.05035416667,0.004111434799
0.050375,0.004132370465
0.05039583333,0.004135700874
0.05041666667,0.004194398411
0.0504375,0.004184416961
0.05045833333,0.004229801241
0.05047916667,0.00417976873
0.0505,0.004204901401
0.05052083333,0.004194172099
0.05054166667,0.004239683971
0.0505625,0.004230267834
0.05058333333,0.004224964883
0.05060416667,0.004180224147
0.050625,0.004161771853
0.05064583333,0.004137462471
0.05066666667,0.004150389694
0.0506875,0.004099115264
0.05070833333,0.004077248741
0.05072916667,0.003989045043
0.05075,0.00398812443
0.05077083333,0.003924446646
0.05079166667,0.003895814065
0.0508125,0.003847744083
0.05083333333,0.003785066539
0.05085416667,0.003692047903
0.050875,0.003634055145
0.05089583333,0.003551290603
0.05091666667,0.003505577566
0.0509375,0.003481179709
0.05095833333,0.003463390516
0.05097916667,0.003440932371
0.051,0.003389128018
0.05102083333,0.00331852911
0.05104166667,0.003264206927
0.0510625,0.003218387719
0.05108333333,0.00319947768
0.05110416667,0.003164177528
0.051125,0.003116716864
0.05114583333,0.003129710909
0.05116666667,0.003125175368
0.0511875,0.003127207048
0.05120833333,0.003087257966
0.05122916667,0.003032700391
0.05125,0.003000389785
0.05127083333,0.00299570011
0.05129166667,0.002985877916
0.0513125,0.003003224265
0.05133333333,0.002993692644
0.05135416667,0.002997462172
0.051375,0.002941837767
0.05139583333,0.002952492796
0.05141666667,0.002944222651
0.0514375,0.002970242873
0.05145833333,0.002990193665
0.05147916667,0.003036816139
0.0515,0.003061120398
0.05152083333,0.003142362926
0.05154166667,0.003173882607
0.0515625,0.003220464801
0.05158333333,0.003207538975
0.05160416667,0.003267359221
0.051625,0.003277077572
0.05164583333,0.003292273497
0.05166666667,0.003277920419
0.0516875,0.003320611781
0.05170833333,0.00337319728
0.05172916667,0.003454881022
0.05175,0.003462068271
0.05177083333,0.003492239164
0.05179166667,0.003462517634
0.0518125,0.003418777604
0.05183333333,0.00337785203
0.05185416667,0.003354741726
0.051875,0.003323058365
0.05189583333,0.003291314468
0.05191666667,0.003259771969
0.0519375,0.003263011808
0.05195833333,0.003241362981
0.05197916667,0.003238347126
0.052,0.003262550803
0.05202083333,0.003276415868
0.05204166667,0.003286080901
0.0520625,0.003303072182
0.05208333333,0.003325972706
0.05210416667,0.003375976346
0.052125,0.003386447206
0.05214583333,0.003357378067
0.05216666667,0.003370172577
0.0521875,0.003284033388
0.05220833333,0.003283125348
0.05222916667,0.003247118788
0.05225,0.003198971506
0.05227083333,0.003105460899
0.05229166667,0.003025888465
0.0523125,0.003013927257
0.05233333333,0.003007770283
0.05235416667,0.00294540287
0.052375,0.002949172631
0.05239583333,0.00290572294
0.05241666667,0.002962878905
0.0524375,0.003000644967
0.05245833333,0.003011145629
0.05247916667,0.002970811911
0.0525,0.002951673232
0.05252083333,0.002815216081
0.05254166667,0.002752220491
0.0525625,0.002612800803
0.05258333333,0.00254445523
0.05260416667,0.002453768393
0.052625,0.00235922914
0.05264583333,0.002263402566
0.05266666667,0.002187851118
0.0526875,0.002091493923
0.05270833333,0.002057133708
0.05272916667,0.001986981835
0.05275,0.001981658163
0.05277083333,0.001981792971
0.05279166667,0.001949105295
0.0528125,0.001942823408
0.05283333333,0.001900131814
0.05285416667,0.001880301745
0.052875,0.001851438195
0.05289583333,0.001761627849
0.05291666667,0.001651108498
0.0529375,0.001593511784
0.05295833333,0.001496016863
0.05297916667,0.001459488412
0.053,0.001366697252
0.05302083333,0.001364039723
0.05304166667,0.001300347969
0.0530625,0.001352816937
0.05308333333,0.001323464327
0.05310416667,0.001299890573
0.053125,0.001327236532
0.05314583333,0.001381540322
0.05316666667,0.001258348115
0.0531875,0.001264903927
0.05320833333,0.001283973921
0.05322916667,0.001308410079
0.05325,0.001311287633
0.05327083333,0.001345999422
0.05329166667,0.001282482524
0.0533125,0.001332256012
0.05333333333,0.001280311495
0.05335416667,0.001318793162
0.053375,0.001370702521
0.05339583333,0.001425831812
0.05341666667,0.001406779396
0.0534375,0.001432307879
0.05345833333,0.001409821562
0.05347916667,0.001442773966
0.0535,0.001416395884
0.05352083333,0.001429880271
0.05354166667,0.001419744454
0.0535625,0.001400821377
0.05358333333,0.001341302181
0.05360416667,0.001293153502
0.053625,0.00128375541
0.05364583333,0.001317569637
0.05366666667,0.001325517893
0.0536875,0.001326200319
0.05370833333,0.001306756632
0.05372916667,0.001233249321
0.05375,0.001132754725
0.05377083333,0.001070930739
0.05379166667,0.001021267148
0.0538125,0.0009538741433
0.05383333333,0.0008953333017
0.05385416667,0.0008106716559
0.053875,0.0007962756208
0.05389583333,0.000732739747
0.05391666667,0.00074788864
0.0539375,0.0006747875595
0.05395833333,0.000690455432
0.05397916667,0.0006856634864
0.054,0.0006680550869
0.05402083333,0.000666395179
0.05404166667,0.000695457682
0.0540625,0.0007345162448
0.05408333333,0.0008111236384
0.05410416667,0.0007469769916
0.054125,0.0009347576415
0.05414583333,0.0009385555168
0.05416666667,0.0009902310558
0.0541875,0.0009681459051
0.05420833333,0.0009723308613
0.05422916667,0.0009361320408
0.05425,0.001015035901
0.05427083333,0.001005287515
0.05429166667,0.001048715436
0.0543125,0.001045377459
0.05433333333,0.001025004429
0.05435416667,0.001009191037
0.054375,0.0009765205905
0.05439583333,0.0008900432149
0.05441666667,0.000866088958
0.0544375,0.000735348498
0.05445833333,0.0006873030798
0.05447916667,0.0005971038481
0.0545,0.0005687661469
0.05452083333,0.0006114424323
0.05454166667,0.0006657017511
0.0545625,0.0007040909841
0.05458333333,0.0006734585622
0.05460416667,0.0006303539849
0.054625,0.000526265474
0.05464583333,0.0004300979199
0.05466666667,0.0003458051942
0.0546875,0.0002755093738
0.05470833333,0.00022953804
0.05472916667,0.0001651906059
0.05475,9.086050704e-05
0.05477083333,3.862934318e-05
0.05479166667,-3.631478467e-05
0.0548125,-4.658848047e-05
0.05483333333,-0.0001943825191
0.05485416667,-0.0002423121186
0.054875,-0.0002993467497
0.05489583333,-0.0003548591922
0.05491666667,-0.0003730143071
0.0549375,-0.0003947041987
0.05495833333,-0.0004306045012
0.05497916667,-0.0004278467968
0.055,-0.0005382768577
0.05502083333,-0.0005465111462
0.05504166667,-0.0006341835833
0.0550625,-0.0006911160308
0.05508333333,-0.0008274924476
0.05510416667,-0.0009213275043
0.055125,-0.001041460782
0.05514583333,-0.001095765736
0.05516666667,-0.001142939436
0.0551875,-0.001141434768
0.05520833333,-0.001211049501
0.05522916667,-0.001256994554
0.05525,-0.001314740046
0.05527083333,-0.00134259637
0.05529166667,-0.001387526281
0.0553125,-0.001436235616
0.05533333333,-0.00147990603
0.05535416667,-0.001458643703
0.055375,-0.00151377311
0.05539583333,-0.001548682922
0.05541666667,-0.001597974449
0.0554375,-0.001629599021
0.05545833333,-0.001691103447
0.05547916667,-0.001728985924
0.0555,-0.001822008402
0.05552083333,-0.001868411084
0.05554166667,-0.001934903557
0.0555625,-0.001956354827
0.05558333333,-0.001930334955
0.05560416667,-0.00187591638
0.055625,-0.001815005904
0.05564583333,-0.001797545701
0.05566666667,-0.001797260717
0.0556875,-0.001785785891
0.05570833333,-0.001833779272
0.05572916667,-0.001918542897
0.05575,-0.001967526739
0.05577083333,-0.002075920114
0.05579166667,-0.002163750585
0.0558125,-0.00225213659
0.05583333333,-0.002277319785
0.05585416667,-0.002337988932
0.055875,-0.002362070605
0.05589583333,-0.002393273171
0.05591666667,-0.002381729661
0.0559375,-0.002341808984
0.05595833333,-0.002270350931
0.05597916667,-0.002283143345
0.056,-0.002242586575
0.05602083333,-0.002275303937
0.05604166667,-0.002319026971
0.0560625,-0.00228541065
0.05608333333,-0.00224419334
0.05610416667,-0.002201453317
0.056125,-0.002157452516
0.05614583333,-0.002184704877
0.05616666667,-0.002123204293
0.0561875,-0.002150925342
0.05620833333,-0.002083900617
0.05622916667,-0.001998814289
0.05625,-0.00196682266
0.05627083333,-0.001938101486
0.05629166667,-0.001898087095
0.0563125,-0.001866103266
0.05633333333,-0.001807820983
0.05635416667,-0.001751723816
0.056375,-0.001657968271
0.05639583333,-0.00158575573
0.05641666667,-0.001541424659
0.0564375,-0.001497854711
0.05645833333,-0.001479797997
0.05647916667,-0.001514837844
0.0565,-0.001540333964
0.05652083333,-0.001568832085
0.05654166667,-0.001612597611
0.0565625,-0.001663347823
0.05658333333,-0.001687790384
0.05660416667,-0.001706320443
0.056625,-0.001751279691
0.05664583333,-0.001811710536
0.05666666667,-0.001855661394
0.0566875,-0.001849499648
0.05670833333,-0.001827724162
0.05672916667,-0.001782769803
0.05675,-0.001807363704
0.05677083333,-0.001842595986
0.05679166667,-0.001844415558
0.0568125,-0.001861492405
0.05683333333,-0.001962316222
0.05685416667,-0.002016402781
0.056875,-0.002058620565
0.05689583333,-0.002054523211
0.05691666667,-0.002098998521
0.0569375,-0.002074371325
0.05695833333,-0.002120956546
0.05697916667,-0.002122504869
0.057,-0.002106925705
0.05702083333,-0.002135309158
0.05704166667,-0.002127305605
0.0570625,-0.002141586505
0.05708333333,-0.002086762339
0.05710416667,-0.002009428106
0.057125,-0.00207965239
0.05714583333,-0.002054511337
0.05716666667,-0.002051019343
0.0571875,-0.002025579335
0.05720833333,-0.002009359654
0.05722916667,-0.001992589561
0.05725,-0.002026519272
0.05727083333,-0.002066182671
0.05729166667,-0.002174825408
0.0573125,-0.002210425446
0.05733333333,-0.002219795482
0.05735416667,-0.002177043119
0.057375,-0.00217792904
0.05739583333,-0.002206875244
0.05741666667,-0.002209025435
0.0574375,-0.002218023641
0.05745833333,-0.002230579266
0.05747916667,-0.002195311245
0.0575,-0.002218388254
0.05752083333,-0.00228110631
0.05754166667,-0.002323383
0.0575625,-0.002337001497
0.05758333333,-0.002350781113
0.05760416667,-0.002338454593
0.057625,-0.002361888066
0.05764583333,-0.0023598189
0.05766666667,-0.002363393549
0.0576875,-0.002389068482
0.05770833333,-0.002382812789
0.05772916667,-0.002353422111
0.05775,-0.002323758323
0.05777083333,-0.002341040876
0.05779166667,-0.002349420916
0.0578125,-0.002383243758
0.05783333333,-0.002428913489
0.05785416667,-0.002445250284
0.057875,-0.00248533953
0.05789583333,-0.002509185113
0.05791666667,-0.002424098551
0.0579375,-0.002460412681
0.05795833333,-0.002477404894
0.05797916667,-0.002456035232
0.058,-0.002461898606
0.05802083333,-0.002442111494
0.05804166667,-0.002397783101
0.0580625,-0.002408738947
0.05808333333,-0.002327688737
0.05810416667,-0.002300026128
0.058125,-0.002187406179
0.05814583333,-0.002103605075
0.05816666667,-0.002008101204
0.0581875,-0.001915306551
0.05820833333,-0.001871138578
0.05822916667,-0.001850400353
0.05825,-0.001810515299
0.05827083333,-0.001856556628
0.05829166667,-0.00185327197
0.0583125,-0.001838063938
0.05833333333,-0.001781525905
0.05835416667,-0.001704462804
0.058375,-0.001594849746
0.05839583333,-0.001517337631
0.05841666667,-0.001433200319
0.0584375,-0.001358748181
0.05845833333,-0.001322966767
0.05847916667,-0.00132122403
0.0585,-0.001328042941
0.05852083333,-0.001396335429
0.05854166667,-0.001448547817
0.0585625,-0.001495235367
0.05858333333,-0.001493867836
0.05860416667,-0.001506809378
0.058625,-0.001539048506
0.05864583333,-0.001557474257
0.05866666667,-0.001580396667
0.0586875,-0.001571456902
0.05870833333,-0.00154260674
0.05872916667,-0.001557913376
0.05875,-0.001548572211
0.05877083333,-0.001544971718
0.05879166667,-0.001553898677
0.0588125,-0.001546560205
0.05883333333,-0.001578793162
0.05885416667,-0.00158742175
0.058875,-0.001621459262
0.05889583333,-0.001662813709
0.05891666667,-0.001671961276
0.0589375,-0.001686941017
0.05895833333,-0.001688629389
0.05897916667,-0.00162079453
0.059,-0.001603996614
0.05902083333,-0.001499146456
0.05904166667,-0.001463512657
0.0590625,-0.001468145871
0.05908333333,-0.001507933019
0.05910416667,-0.001493284595
0.059125,-0.001559127006
0.05914583333,-0.001501518651
0.05916666667,-0.001557431417
0.0591875,-0.001608778257
0.05920833333,-0.001656652545
0.05922916667,-0.001684763702
0.05925,-0.001770669012
0.05927083333,-0.001764244516
0.05929166667,-0.001793230185
0.0593125,-0.001782114501
0.05933333333,-0.001798473764
0.05935416667,-0.001857625088
0.059375,-0.001820743317
0.05939583333,-0.001824784791
0.05941666667,-0.001895020832
0.0594375,-0.001831766916
0.05945833333,-0.001831638976
0.05947916667,-0.00174415356
0.0595,-0.001751826145
0.05952083333,-0.001770874951
0.05954166667,-0.001747652073
0.0595625,-0.001723461086
0.05958333333,-0.001675665728
0.05960416667,-0.00163914694
0.059625,-0.001648064237
0.05964583333,-0.001572750625
0.05966666667,-0.001579460921
0.0596875,-0.001503985026
0.05970833333,-0.00144458795
0.05972916667,-0.00134322024
0.05975,-0.001329443417
0.05977083333,-0.001311194035
0.05979166667,-0.001336290501
0.0598125,-0.001325548277
0.05983333333,-0.00142308604
0.05985416667,-0.001462166081
0.059875,-0.00150060188
0.05989583333,-0.00151194958
0.05991666667,-0.001538407756
0.0599375,-0.001595348935
0.05995833333,-0.001596112503
0.05997916667,-0.001648638165
0.06,-0.001652741805
0.06002083333,-0.001699036104
0.06004166667,-0.001743855653
0.0600625,-0.001805036678
0.06008333333,-0.001887867926
0.06010416667,-0.001940893126
0.060125,-0.002011208329
0.06014583333,-0.002066725632
0.06016666667,-0.002089439193
0.0601875,-0.002232785802
0.06020833333,-0.002320175525
0.06022916667,-0.002423491329
0.06025,-0.002508373465
0.06027083333,-0.002618704224
0.06029166667,-0.002676485106
0.0603125,-0.002729434054
0.06033333333,-0.002778708702
0.06035416667,-0.002823340707
0.060375,-0.002860126551
0.06039583333,-0.002951016184
0.06041666667,-0.002992588561
0.0604375,-0.003069242463
0.06045833333,-0.003118337831
0.06047916667,-0.003176614409
0.0605,-0.00319400616
0.06052083333,-0.003274999559
0.06054166667,-0.003247764194
0.0605625,-0.00328489067
0.06058333333,-0.003320362186
0.06060416667,-0.003317953087
0.060625,-0.003319522366
0.06064583333,-0.003354029031
0.06066666667,-0.003344355384
0.0606875,-0.003365691286
0.06070833333,-0.003304401645
0.06072916667,-0.003326092381
0.06075,-0.003305165563
0.06077083333,-0.003332301043
0.06079166667,-0.003326564096
0.0608125,-0.003351172199
0.06083333333,-0.003350970102
0.06085416667,-0.003336921101
0.060875,-0.003346581478
0.06089583333,-0.003361436771
0.06091666667,-0.003383890493
0.0609375,-0.003337415168
0.06095833333,-0.003322896315
0.06097916667,-0.003350402927
0.061,-0.003288375447
0.06102083333,-0.003302370897
0.06104166667,-0.003303791862
0.0610625,-0.003292994341
0.06108333333,-0.003307483857
0.06110416667,-0.003253637347
0.061125,-0.003229741007
0.06114583333,-0.003205150831
0.06116666667,-0.003236111952
0.0611875,-0.003237765515
0.06120833333,-0.003151298268
0.06122916667,-0.00304540596
0.06125,-0.003051371546
0.06127083333,-0.002921019914
0.06129166667,-0.002841531066
0.0613125,-0.002733084373
0.06133333333,-0.00265505584
0.06135416667,-0.002617892344
0.061375,-0.002565200441
0.06139583333,-0.002502869815
0.06141666667,-0.002534519648
0.0614375,-0.002426478546
0.06145833333,-0.002371868119
0.06147916667,-0.002282579895
0.0615,-0.002208557213
0.06152083333,-0.002193307737
0.06154166667,-0.002123253886
0.0615625,-0.002064042957
0.06158333333,-0.002061879728
0.06160416667,-0.001975616673
0.061625,-0.001943145297
0.06164583333,-0.001907775761
0.06166666667,-0.001948424266
0.0616875,-0.001935209031
0.06170833333,-0.001954292879
0.06172916667,-0.001944056014
0.06175,-0.001954810461
0.06177083333,-0.001939579728
0.06179166667,-0.001991304802
0.0618125,-0.002028872492
0.06183333333,-0.002014895901
0.06185416667,-0.001994444756
0.061875,-0.001908326522
0.06189583333,-0.001872683875
0.06191666667,-0.001884696307
0.0619375,-0.001884935307
0.06195833333,-0.001913222019
0.06197916667,-0.001920187846
0.062,-0.001869667554
0.06202083333,-0.001814505085
0.06204166667,-0.001760927262
0.0620625,-0.001783451997
0.06208333333,-0.001738095074
0.06210416667,-0.001728221076
0.062125,-0.001634367858
0.06214583333,-0.001583907171
0.06216666667,-0.00144430995
0.0621875,-0.00138051284
0.06220833333,-0.001332232147
0.06222916667,-0.001306782127
0.06225,-0.001276285853
0.06227083333,-0.001240614918
0.06229166667,-0.001222583232
0.0623125,-0.001204021042
0.06233333333,-0.001143861329
0.06235416667,-0.001156014507
0.062375,-0.001073256601
0.06239583333,-0.001043267082
0.06241666667,-0.0009562907508
0.0624375,-0.0009331929614
0.06245833333,-0.0008887127624
0.06247916667,-0.0008752337308
0.0625,-0.0008169756038
0.06252083333,-0.0007979571819
0.06254166667,-0.0007967240526
0.0625625,-0.0008014423074
0.06258333333,-0.0007163153496
0.06260416667,-0.0006976477453
0.062625,-0.0006600626511
0.06264583333,-0.0006515704445
0.06266666667,-0.0006021289737
0.0626875,-0.0005637969589
0.06270833333,-0.0005599716096
0.06272916667,-0.0005220809835
0.06275,-0.0004952773452
0.06277083333,-0.0004560278321
0.06279166667,-0.0004283708986
0.0628125,-0.000393182534
0.06283333333,-0.0003841586295
0.06285416667,-0.0003677883651
0.062875,-0.0003381193092
0.06289583333,-0.0002896496735
0.06291666667,-0.0002662517945
0.0629375,-0.0002133904927
0.06295833333,-0.0002241597394
0.06297916667,-0.0001559251396
0.063,-0.0001429965196
0.06302083333,-4.810464452e-05
0.06304166667,-4.486066609e-05
0.0630625,1.457268627e-05
0.06308333333,0.0001205955341
0.06310416667,0.0001547106804
0.063125,0.0001692387013
0.06314583333,0.0002209671366
0.06316666667,0.0002457971277
0.0631875,0.0003445781767
0.06320833333,0.0003759326646
0.06322916667,0.0004565999261
0.06325,0.0005017211079
0.06327083333,0.0005839853548
0.06329166667,0.0005854843766
0.0633125,0.000764950295
0.06333333333,0.0008399371873
0.06335416667,0.0009391552885
0.063375,0.0009795067599
0.06339583333,0.001027747872
0.06341666667,0.001032925444
0.0634375,0.001070937258
0.06345833333,0.001064105076
0.06347916667,0.00112657249
0.0635,0.001129450859
0.06352083333,0.001180659165
0.06354166667,0.00116300676
0.0635625,0.001169328927
0.06358333333,0.00117212336
0.06360416667,0.001172025572
0.063625,0.00117660861
0.06364583333,0.00118386629
0.06366666667,0.001138466992
0.0636875,0.001096553053
0.06370833333,0.00105199567
0.06372916667,0.001013089321
0.06375,0.001036631991
0.06377083333,0.001088238088
0.06379166667,0.001188829774
0.0638125,0.001223819098
0.06383333333,0.001206753543
0.06385416667,0.001227370813
0.063875,0.001262152102
0.06389583333,0.001256352989
0.06391666667,0.001261476893
0.0639375,0.001208956703
0.06395833333,0.00115209003
0.06397916667,0.001083301264
0.064,0.001034739311
0.06402083333,0.0009802341228
0.06404166667,0.001010103035
0.0640625,0.0009908534121
0.06408333333,0.001080974936
0.06410416667,0.0009946145583
0.064125,0.001095492626
0.06414583333,0.001119819703
0.06416666667,0.00119326415
0.0641875,0.001248859451
0.06420833333,0.001247730223
0.06422916667,0.001186320442
0.06425,0.001154016238
0.06427083333,0.001090805861
0.06429166667,0.001123222406
0.0643125,0.001071071252
0.06433333333,0.001096416032
0.06435416667,0.001073426334
0.064375,0.001094077365
0.06439583333,0.001082949806
0.06441666667,0.001062408206
0.0644375,0.001059321337
0.06445833333,0.001109328121
0.06447916667,0.00110861042
0.0645,0.001155218342
0.06452083333,0.001141400193
0.06454166667,0.001123287831
0.0645625,0.001130378339
0.06458333333,0.001116159838
0.06460416667,0.001158901141
0.064625,0.001207130845
0.06464583333,0.001232954441
0.06466666667,0.001268323162
0.0646875,0.001286833547
0.06470833333,0.001328267856
0.06472916667,0.001392213162
0.06475,0.001432264224
0.06477083333,0.001497995108
0.06479166667,0.001504810993
0.0648125,0.001546468236
0.06483333333,0.001603459241
0.06485416667,0.001665639458
0.064875,0.00173055951
0.06489583333,0.001777063007
0.06491666667,0.001828693086
0.0649375,0.001873208676
0.06495833333,0.001874358626
0.06497916667,0.001901332987
0.065,0.001912164153
0.06502083333,0.001983505441
0.06504166667,0.002022539033
0.0650625,0.002063961234
0.06508333333,0.002112086397
0.06510416667,0.002162986435
0.065125,0.002166461432
0.06514583333,0.002219969872
0.06516666667,0.002209303901
0.0651875,0.002211747691
0.06520833333,0.002204628894
0.06522916667,0.002219005255
0.06525,0.002232449362
0.06527083333,0.00228497223
0.06529166667,0.002297002124
0.0653125,0.002321314532
0.06533333333,0.002342851367
0.06535416667,0.002345748944
0.065375,0.002353238873
0.06539583333,0.002393211704
0.06541666667,0.002402521204
0.0654375,0.002501130803
0.06545833333,0.002496859292
0.06547916667,0.002488805912
0.0655,0.002500088653
0.06552083333,0.002494633198
0.06554166667,0.002521872753
0.0655625,0.002503693802
0.06558333333,0.002502767369
0.06560416667,0.002523609437
0.065625,0.002555698855
0.06564583333,0.002583188005
0.06566666667,0.00259828358
0.0656875,0.002596166451
0.06570833333,0.002587560797
0.06572916667,0.002584110713
0.06575,0.002555413172
0.06577083333,0.002561038127
0.06579166667,0.00258042058
0.0658125,0.002529253252
0.06583333333,0.002540133428
0.06585416667,0.002530526603
0.065875,0.002548096236
0.06589583333,0.002558575943
0.06591666667,0.002547059907
0.0659375,0.002521351213
0.06595833333,0.002516027074
0.06597916667,0.00251051574
0.066,0.002526846481
0.06602083333,0.002496477915
0.06604166667,0.002473484026
0.0660625,0.002417513402
0.06608333333,0.002389379311
0.06610416667,0.00240002526
0.066125,0.002400721656
0.06614583333,0.002391455928
0.06616666667,0.002391218208
0.0661875,0.00235000439
0.06620833333,0.002340043895
0.06622916667,0.002313108183
0.06625,0.002323318971
0.06627083333,0.002318750601
0.06629166667,0.00230479124
0.0663125,0.002290712669
0.06633333333,0.002252251608
0.06635416667,0.002213124884
0.066375,0.002188672079
0.06639583333,0.002163784811
0.06641666667,0.002168123843
0.0664375,0.00215360173
0.06645833333,0.002153952373
0.06647916667,0.00219559879
0.0665,0.002195904264
0.06652083333,0.002218625043
0.06654166667,0.002224144991
0.0665625,0.002236286178
0.06658333333,0.002224659314
0.06660416667,0.00222165673
0.066625,0.00221369369
0.06664583333,0.002215082524
0.06666666667,0.002225915203
0.0666875,0.002211586107
0.06670833333,0.002173154615
0.06672916667,0.002152162138
0.06675,0.002110380214
0.06677083333,0.002090196824
0.06679166667,0.002064632718
0.0668125,0.002040176885
0.06683333333,0.002016702434
0.06685416667,0.002008706564
0.066875,0.001980032073
0.06689583333,0.001973496052
0.06691666667,0.00196547457
0.0669375,0.001986280549
0.06695833333,0.001975859981
0.06697916667,0.001985260518
0.067,0.001965983305
0.06702083333,0.001922118361
0.06704166667,0.001881428296
0.0670625,0.001856850577
0.06708333333,0.001822391874
0.06710416667,0.001790196053
0.067125,0.001759488601
0.06714583333,0.001761413296
0.06716666667,0.001736383769
0.0671875,0.001717987121
0.06720833333,0.001686467323
0.06722916667,0.001667798497
0.06725,0.001648832345
0.06727083333,0.001626376528
0.06729166667,0.001621404546
0.0673125,0.00160290685
0.06733333333,0.001561155776
0.06735416667,0.001555231982
0.067375,0.001533090253
0.06739583333,0.001514802105
0.06741666667,0.001507207402
0.0674375,0.00147521391
0.06745833333,0.001473948359
0.06747916667,0.001472179312
0.0675,0.001484677894
0.06752083333,0.001518863253
0.06754166667,0.001534808544
0.0675625,0.001568783191
0.06758333333,0.001591118285
0.06760416667,0.001620141324
0.067625,0.001677108696
0.06764583333,0.001694524544
0.06766666667,0.001713517238
0.0676875,0.001726829563
0.06770833333,0.001747090369
0.06772916667,0.001764053246
0.06775,0.001801417908
0.06777083333,0.001783521031
0.06779166667,0.001764680608
0.0678125,0.001730212825
0.06783333333,0.001713460544
0.06785416667,0.001715106075
0.067875,0.001766521134
0.06789583333,0.001813408453
0.06791666667,0.001854938455
0.0679375,0.001871214481
0.06795833333,0.001856318559
0.06797916667,0.001852642512
0.068,0.001874308218
0.06802083333,0.001883911318
0.06804166667,0.001897106762
0.0680625,0.00188177987
0.06808333333,0.001873919973
0.06810416667,0.001875588903
0.068125,0.001870861743
0.06814583333,0.001875889953
0.06816666667,0.001896744827
0.0681875,0.001896694652
0.06820833333,0.00190572557
0.06822916667,0.001919183531
0.06825,0.00194048963
0.06827083333,0.001967867371
0.06829166667,0.001991488738
0.0683125,0.002016154584
0.06833333333,0.00204056222
0.06835416667,0.002064661821
0.068375,0.002078828169
0.06839583333,0.002086884342
0.06841666667,0.002086414723
0.0684375,0.00208047824
0.06845833333,0.002068219474
0.06847916667,0.002063069493
0.0685,0.002063157735
0.06852083333,0.002039327286
0.06854166667,0.002011583885
0.0685625,0.002002835739
0.06858333333,0.001973686041
0.06860416667,0.001966729295
0.068625,0.001959398855
0.06864583333,0.001957796281
0.06866666667,0.001939293114
0.0686875,0.001914255554
0.06870833333,0.001882359968
0.06872916667,0.001865089987
0.06875,0.001852105255
0.06877083333,0.001849130495
0.06879166667,0.001829542918
0.0688125,0.001825172571
0.06883333333,0.001817615004
0.06885416667,0.001836074051
0.068875,0.001831651782
0.06889583333,0.001860499731
0.06891666667,0.00187651685
0.0689375,0.001883897115
0.06895833333,0.001876000781
0.06897916667,0.001887849765
0.069,0.0018925349
0.06902083333,0.001910417457
0.06904166667,0.001915022149
0.0690625,0.001915407483
0.06908333333,0.001908104634
0.06910416667,0.001909464598
0.069125,0.001912167412
0.06914583333,0.001920341514
0.06916666667,0.001931676874
0.0691875,0.001946050092
0.06920833333,0.00193972874
0.06922916667,0.001932589104
0.06925,0.001952215913
0.06927083333,0.001951279934
0.06929166667,0.001944104442
0.0693125,0.00193343882
0.06933333333,0.001928799553
0.06935416667,0.001913061598
0.069375,0.001924088923
0.06939583333,0.001915744622
0.06941666667,0.001915237866
0.0694375,0.001909054583
0.06945833333,0.001904626261
0.06947916667,0.001904938021
0.0695,0.001893500565
0.06952083333,0.001881076954
0.06954166667,0.001890384592
0.0695625,0.001877275412
0.06958333333,0.001873081201
0.06960416667,0.001867717947
0.069625,0.001869625645
0.06964583333,0.001868630992
0.06966666667,0.001881838078
0.0696875,0.001863197191
0.06970833333,0.001879289164
0.06972916667,0.001877540722
0.06975,0.001890395535
0.06977083333,0.001893947367
0.06979166667,0.001908404287
0.0698125,0.00190847693
0.06983333333,0.001904988312
0.06985416667,0.001896405127
0.069875,0.001886928221
0.06989583333,0.001875599031
0.06991666667,0.001869591419
0.0699375,0.00185100676
0.06995833333,0.001842849539
0.06997916667,0.00182137196
0.07,0.001803927938
0.07002083333,0.001784177148
0.07004166667,0.001770683797
0.0700625,0.001767227543
0.07008333333,0.001760472544
0.07010416667,0.001754067256
0.070125,0.001744860667
0.07014583333,0.001736446749
0.07016666667,0.001732000499
0.0701875,0.001720412867
0.07020833333,0.001706680399
0.07022916667,0.001696552266
0.07025,0.001687095151
0.07027083333,0.001690309145
0.07029166667,0.001682233647
0.0703125,0.001676601241
0.07033333333,0.001659678412
0.07035416667,0.001649483223
0.070375,0.001630899496
0.07039583333,0.001638284884
0.07041666667,0.001633121632
0.0704375,0.001643612981
0.07045833333,0.001658925787
0.07047916667,0.00167391682
0.0705,0.001694672159
0.07052083333,0.001708681695
0.07054166667,0.001698356704
0.0705625,0.001690320787
0.07058333333,0.001670528436
0.07060416667,0.001665527932
0.070625,0.001645815559
0.07064583333,0.00163167459
0.07066666667,0.001595301786
0.0706875,0.001567723928
0.07070833333,0.00152440276
0.07072916667,0.001506386558
0.07075,0.001497023157
0.07077083333,0.001504030894
0.07079166667,0.001515396754
0.0708125,0.001523998915
0.07083333333,0.001544734812
0.07085416667,0.001567775384
0.070875,0.001584644895
0.07089583333,0.001598745468
0.07091666667,0.001602483448
0.0709375,0.001596850809
0.07095833333,0.001580689917
0.07097916667,0.001570197521
0.071,0.001567345113
0.07102083333,0.001566981897
0.07104166667,0.001575650764
0.0710625,0.001576538198
0.07108333333,0.001592635177
0.07110416667,0.001613892498
0.071125,0.001640863135
0.07114583333,0.001677908236
0.07116666667,0.001706468174
0.0711875,0.001730002346
0.07120833333,0.001759441569
0.07122916667,0.001775779529
0.07125,0.001789298025
0.07127083333,0.001790095586
0.07129166667,0.001795062097
0.0713125,0.001773857395
0.07133333333,0.001759054139
0.07135416667,0.001726333285
0.071375,0.001718031475
0.07139583333,0.001715474296
0.07141666667,0.001712584053
0.0714375,0.00170877378
0.07145833333,0.00168912299
0.07147916667,0.001664662734
0.0715,0.001666825265
0.07152083333,0.001653281739
0.07154166667,0.001661663293
0.0715625,0.001659910777
0.07158333333,0.001659912057
0.07160416667,0.001650182181
0.071625,0.001642179559
0.07164583333,0.001621982898
0.07166666667,0.001600884832
0.0716875,0.001569511835
0.07170833333,0.001546127722
0.07172916667,0.001522215549
0.07175,0.001517935889
0.07177083333,0.001512673683
0.07179166667,0.001522578299
0.0718125,0.001530117239
0.07183333333,0.001540871337
0.07185416667,0.001544826548
0.071875,0.001565607148
0.07189583333,0.001582230791
0.07191666667,0.001604167395
0.0719375,0.001618822454
0.07195833333,0.001616707072
0.07197916667,0.001618420007
0.072,0.00159848819
0.07202083333,0.001578608062
0.07204166667,0.001560785924
0.0720625,0.001539894263
0.07208333333,0.00153488887
0.07210416667,0.00152012764
0.072125,0.001509392518
0.07214583333,0.001497848425
0.07216666667,0.001467354014
0.0721875,0.001448540483
0.07220833333,0.001407350879
0.07222916667,0.001382554416
0.07225,0.001334752887
0.07227083333,0.001298983232
0.07229166667,0.001255882555
0.0723125,0.001219078433
0.07233333333,0.001169321244
0.07235416667,0.001118438318
0.072375,0.001064579235
0.07239583333,0.001018023933
0.07241666667,0.0009686121484
0.0724375,0.0009328389424
0.07245833333,0.0008935598889
0.07247916667,0.0008675002609
0.0725,0.0008455459611
0.07252083333,0.0008296250016
0.07254166667,0.0008016699576
0.0725625,0.0007760346634
0.07258333333,0.0007447431562
0.07260416667,0.0007256973186
0.072625,0.0007026931853
0.07264583333,0.0006931125536
0.07266666667,0.0006782119162
0.0726875,0.0006736945943
0.07270833333,0.000661031343
0.07272916667,0.000651363167
0.07275,0.0006338364328
0.07277083333,0.0006263245014
0.07279166667,0.000614834833
0.0728125,0.0006087777438
0.07283333333,0.0005914660869
0.07285416667,0.0005765997921
0.072875,0.0005639544688
0.07289583333,0.0005589179927
0.07291666667,0.0005429945886
0.0729375,0.0005231010728
0.07295833333,0.0004925864632
0.07297916667,0.0004575567727
0.073,0.0004352163523
0.07302083333,0.0004154017952
0.07304166667,0.0004037391918
0.0730625,0.0003840541758
0.07308333333,0.0003684244293
0.07310416667,0.0003410256759
0.073125,0.0003140750632
0.07314583333,0.0002779750503
0.07316666667,0.0002547707991
0.0731875,0.0002265936491
0.07320833333,0.0002101555292
0.07322916667,0.0001931610168
0.07325,0.0001679042034
0.07327083333,0.0001397348824
0.07329166667,0.0001369945676
0.0733125,0.0001342797914
0.07333333333,0.0001304712641
0.07335416667,0.0001161910186
0.073375,0.0001159935491
0.07339583333,0.0001012925932
0.07341666667,0.000107048465
0.0734375,0.0001039623239
0.07345833333,0.0001134955091
0.07347916667,0.0001132463731
0.0735,0.000114821516
0.07352083333,0.0001102632668
0.07354166667,0.0001123031616
0.0735625,0.0001097048662
0.07358333333,0.0001180045292
0.07360416667,0.000121661702
0.073625,0.0001391238911
0.07364583333,0.0001531622838
0.07366666667,0.0001745804475
0.0736875,0.0001905151585
0.07370833333,0.0002080183476
0.07372916667,0.0002132636291
0.07375,0.0002231583057
0.07377083333,0.0002255148283
0.07379166667,0.0002253022394
0.0738125,0.0002184012847
0.07383333333,0.0002056844969
0.07385416667,0.0001942127128
0.073875,0.0001868810068
0.07389583333,0.0001782356849
0.07391666667,0.000171849344
0.0739375,0.0001667695906
0.07395833333,0.0001643350552
0.07397916667,0.0001658793626
0.074,0.0001651074854
0.07402083333,0.0001731917146
0.07404166667,0.0001801201579
0.0740625,0.0001875039889
0.07408333333,0.0001932335872
0.07410416667,0.0001954472682
0.074125,0.000190193954
0.07414583333,0.000188998456
0.07416666667,0.0001895031455
0.0741875,0.000182973934
0.07420833333,0.0001749552466
0.07422916667,0.0001824314677
0.07425,0.0001850309054
0.07427083333,0.0001878667827
0.07429166667,0.0001850244153
0.0743125,0.0001912401494
0.07433333333,0.0001941513183
0.07435416667,0.0001991620957
0.074375,0.0001964520634
0.07439583333,0.0001959003566
0.07441666667,0.0001825405052
0.0744375,0.0001792534604
0.07445833333,0.0001705577015
0.07447916667,0.0001675776584
0.0745,0.0001511452429
0.07452083333,0.0001381948532
0.07454166667,0.0001182274063
0.0745625,0.0001095028783
0.07458333333,0.0001017815375
0.07460416667,0.0001006203092
0.074625,9.665674588e-05
0.07464583333,9.01661333e-05
0.07466666667,7.27900624e-05
0.0746875,5.575394607e-05
0.07470833333,3.264004772e-05
0.07472916667,1.076288299e-05
0.07475,-1.349967624e-05
0.07477083333,-4.11543806e-05
0.07479166667,-7.184335118e-05
0.0748125,-0.0001001256751
0.07483333333,-0.0001337870344
0.07485416667,-0.000171480744
0.074875,-0.0002107198088
0.07489583333,-0.0002508964099
0.07491666667,-0.0002786201367
0.0749375,-0.000299920066
0.07495833333,-0.0003162367793
0.07497916667,-0.0003294915368
0.075,-0.0003460704465
0.07502083333,-0.0003607987601
0.07504166667,-0.0003723049304
0.0750625,-0.0003830165369
0.07508333333,-0.0003918556613
0.07510416667,-0.0004063425295
0.075125,-0.0004173406342
0.07514583333,-0.000435115915
0.07516666667,-0.0004453683214
0.0751875,-0.000463349279
0.07520833333,-0.0004815441789
0.07522916667,-0.0005035910872
0.07525,-0.0005236632423
0.07527083333,-0.0005410397425
0.07529166667,-0.0005569150671
0.0753125,-0.0005704579526
0.07533333333,-0.0005866339779
0.07535416667,-0.0006061315071
0.075375,-0.0006312368205
0.07539583333,-0.0006587647949
0.07541666667,-0.0006772561464
0.0754375,-0.0006956866127
0.07545833333,-0.000711938832
0.07547916667,-0.000733110297
0.0755,-0.0007561741513
0.07552083333,-0.0007844622596
0.07554166667,-0.0008122868021
0.0755625,-0.0008325939416
0.07558333333,-0.0008429561858
0.07560416667,-0.0008512347122
0.075625,-0.0008562222356
0.07564583333,-0.0008632976096
0.07566666667,-0.0008736382588
0.0756875,-0.0008814505418
0.07570833333,-0.0008876734064
0.07572916667,-0.0008891799953
0.07575,-0.000890986179
0.07577083333,-0.0008903575945
0.07579166667,-0.0008882401162
0.0758125,-0.0008854591288
0.07583333333,-0.0008813534514
0.07585416667,-0.0008785348618
0.075875,-0.0008801426739
0.07589583333,-0.0008813490858
0.07591666667,-0.0008768677362
0.0759375,-0.0008628264768
0.07595833333,-0.0008460972458
0.07597916667,-0.0008332527941
0.076,-0.0008292514249
0.07602083333,-0.0008323031943
0.07604166667,-0.000839754357
0.0760625,-0.0008435051423
0.07608333333,-0.0008462826954
0.07610416667,-0.0008464961429
0.076125,-0.0008514093352
0.07614583333,-0.0008597289561
0.07616666667,-0.0008723221836
0.0761875,-0.0008830114384
0.07620833333,-0.000889036688
0.07622916667,-0.0008914193022
0.07625,-0.0008913694182
0.07627083333,-0.0008895663777
0.07629166667,-0.0008902528789
0.0763125,-0.0008886535652
0.07633333333,-0.0008897248772
0.07635416667,-0.0008869550074
0.076375,-0.0008858789224
0.07639583333,-0.0008815822657
0.07641666667,-0.0008748330874
0.0764375,-0.0008638716536
0.07645833333,-0.0008528926992
0.07647916667,-0.0008427745779
0.0765,-0.0008333231672
0.07652083333,-0.0008250980754
0.07654166667,-0.0008203601465
0.0765625,-0.0008149573114
0.07658333333,-0.0008097896934
0.07660416667,-0.0007994372863
0.076625,-0.0007872075075
0.07664583333,-0.0007747597992
0.07666666667,-0.0007654816727
0.0766875,-0.0007611390902
0.07670833333,-0.0007594205672
0.07672916667,-0.0007583611878
0.07675,-0.0007550263545
0.07677083333,-0.0007518331404
0.07679166667,-0.0007470724522
0.0768125,-0.0007464631926
0.07683333333,-0.0007500319625
0.07685416667,-0.0007575639756
0.076875,-0.0007665773155
0.07689583333,-0.0007793380646
0.07691666667,-0.0007933870074
0.0769375,-0.0008060219698
0.07695833333,-0.0008134371019
0.07697916667,-0.0008170162328
0.077,-0.0008184851613
0.07702083333,-0.0008199642762
0.07704166667,-0.0008196069975
0.0770625,-0.0008195784758
0.07708333333,-0.0008159240242
0.07710416667,-0.0008132330258
0.077125,-0.0008069450269
0.07714583333,-0.0008030427271
0.07716666667,-0.000801006332
0.0771875,-0.0007984872209
0.07720833333,-0.0007950562285
0.07722916667,-0.0007950193249
0.07725,-0.0007989485748
0.07727083333,-0.000804207928
0.07729166667,-0.000809294288
0.0773125,-0.0008150041685
0.07733333333,-0.0008193448302
0.07735416667,-0.0008259965107
0.077375,-0.0008282748167
0.07739583333,-0.0008288619574
0.07741666667,-0.0008227001526
0.0774375,-0.0008160794387
0.07745833333,-0.0008080657572
0.07747916667,-0.0008044400602
0.0775,-0.0008054184727
0.07752083333,-0.0008079439285
0.07754166667,-0.0008117053658
0.0775625,-0.0008155356045
0.07758333333,-0.0008162409067
0.07760416667,-0.0008182348101
0.077625,-0.0008189916844
0.07764583333,-0.0008225793717
0.07766666667,-0.0008252869593
0.0776875,-0.0008300203481
0.07770833333,-0.000833406928
0.07772916667,-0.0008322602371
0.07775,-0.0008293865249
0.07777083333,-0.0008211386157
0.07779166667,-0.0008116571698
0.0778125,-0.0008024380659
0.07783333333,-0.0007976800553
0.07785416667,-0.0007971022278
0.077875,-0.0008004007977
0.07789583333,-0.0008036760264
0.07791666667,-0.0008061472909
0.0779375,-0.0008043790585
0.07795833333,-0.0008016815409
0.07797916667,-0.0008003925323
0.078,-0.0008013687911
0.07802083333,-0.0008040203247
0.07804166667,-0.0008078671526
0.0780625,-0.0008072808851
0.07808333333,-0.0008046952426
0.07810416667,-0.0007980617229
0.078125,-0.0007918750052
0.07814583333,-0.000785202079
0.07816666667,-0.0007781901513
0.0781875,-0.0007713726372
0.07820833333,-0.0007646648446
0.07822916667,-0.0007572590839
0.07825,-0.0007500604843
0.07827083333,-0.0007425546646
0.07829166667,-0.0007398867747
0.0783125,-0.0007349228254
0.07833333333,-0.0007297313423
0.07835416667,-0.0007231322234
0.078375,-0.0007183659473
0.07839583333,-0.0007154099876
0.07841666667,-0.0007161888061
0.0784375,-0.0007123363321
0.07845833333,-0.0007038700278
0.07847916667,-0.0006921837921
0.0785,-0.000683686696
0.07852083333,-0.0006809157785
0.07854166667,-0.0006821575807
0.0785625,-0.0006833258667
0.07858333333,-0.0006843502633
0.07860416667,-0.0006821886636
0.078625,-0.0006830015918
0.07864583333,-0.0006861875881
0.07866666667,-0.0006922307657
0.0786875,-0.0007004315266
0.07870833333,-0.0007089560386
0.07872916667,-0.0007146172575
0.07875,-0.0007195502985
0.07877083333,-0.0007256829413
0.07879166667,-0.0007294840179
0.0788125,-0.0007302033482
0.07883333333,-0.000726878061
0.07885416667,-0.0007190353936
0.078875,-0.0007130820886
0.07889583333,-0.000709377462
0.07891666667,-0.0007034735754
0.0789375,-0.0006951455725
0.07895833333,-0.000679901219
0.07897916667,-0.0006626677932
0.079,-0.0006424735184
0.07902083333,-0.0006220209762
0.07904166667,-0.0006033541285
0.0790625,-0.000592094555
0.07908333333,-0.0005825560656
0.07910416667,-0.0005793015589
0.079125,-0.0005738632753
0.07914583333,-0.0005745604867
0.07916666667,-0.0005745696253
0.0791875,-0.0005762550863
0.07920833333,-0.0005773634766
0.07922916667,-0.0005815967452
0.07925,-0.0005846838467
0.07927083333,-0.0005885572755
0.07929166667,-0.0005916495575
0.0793125,-0.0005938188406
0.07933333333,-0.0005919731921
0.07935416667,-0.0005880257813
0.079375,-0.0005816298071
0.07939583333,-0.0005797048216
0.07941666667,-0.0005818235804
0.0794375,-0.0005895537324
0.07945833333,-0.0005972007639
0.07947916667,-0.0006031589
0.0795,-0.000605562469
0.07952083333,-0.0006098720478
0.07954166667,-0.0006145558436
0.0795625,-0.0006227989215
0.07958333333,-0.0006297911168
0.07960416667,-0.0006357143284
0.079625,-0.0006412403891
0.07964583333,-0.0006461513694
0.07966666667,-0.000650932081
0.0796875,-0.0006571762497
0.07970833333,-0.0006646348047
0.07972916667,-0.0006713570328
0.07975,-0.0006791878259
0.07977083333,-0.0006877122214
0.07979166667,-0.0006975777796
0.0798125,-0.0007112564053
0.07983333333,-0.0007244176231
0.07985416667,-0.0007374697016
0.079875,-0.0007474265294
0.07989583333,-0.0007543442189
0.07991666667,-0.0007617052179
0.0799375,-0.0007689757622
0.07995833333,-0.0007770579541
0.07997916667,-0.0007814191049
0.08,-0.0007770793163
0.08002083333,-0.0007775707054
0.08004166667,-0.0007809503586
0.0800625,-0.000782529125
0.08008333333,-0.0007879784098
0.08010416667,-0.0007926180842
0.080125,-0.0008017458022
0.08014583333,-0.0008091085474
0.08016666667,-0.0008207822102
0.0801875,-0.0008316682652
0.08020833333,-0.0008463848499
0.08022916667,-0.000858747575
0.08025,-0.0008700314211
0.08027083333,-0.000883843808
0.08029166667,-0.0008991153445
0.0803125,-0.0009169140249
0.08033333333,-0.0009383368888
0.08035416667,-0.0009575046715
0.080375,-0.0009766782168
0.08039583333,-0.000993630616
0.08041666667,-0.001013763598
0.0804375,-0.001033986453
0.08045833333,-0.001054041553
0.08047916667,-0.001073309104
0.0805,-0.001090668142
0.08052083333,-0.001104578027
0.08054166667,-0.001115965191
0.0805625,-0.001122965943
0.08058333333,-0.001127706841
0.08060416667,-0.001128851785
0.080625,-0.001128950971
0.08064583333,-0.001124597504
0.08066666667,-0.001117946114
0.0806875,-0.001106690848
0.08070833333,-0.001098231529
0.08072916667,-0.00109042495
0.08075,-0.001085422817
0.08077083333,-0.001076827757
0.08079166667,-0.001067619305
0.0808125,-0.001056332374
0.08083333333,-0.001046642428
0.08085416667,-0.001039509312
0.080875,-0.001033475506
0.08089583333,-0.00103124266
0.08091666667,-0.001026073471
0.0809375,-0.001020948635
0.08095833333,-0.001014227513
0.08097916667,-0.001009793603
0.081,-0.00100946927
0.08102083333,-0.00101180037
0.08104166667,-0.00101275614
0.0810625,-0.001014172914
0.08108333333,-0.001013899455
0.08110416667,-0.001019844203
0.081125,-0.001024461351
0.08114583333,-0.00103087537
0.08116666667,-0.001033357112
0.0811875,-0.001036839094
0.08120833333,-0.001040494884
0.08122916667,-0.001047041384
0.08125,-0.001053081709
0.08127083333,-0.001057844143
0.08129166667,-0.001057935646
0.0813125,-0.001056043897
0.08133333333,-0.00105151115
0.08135416667,-0.001047639758
0.081375,-0.001040458563
0.08139583333,-0.001033750363
0.08141666667,-0.001022886951
0.0814375,-0.001012504566
0.08145833333,-0.00099898607
0.08147916667,-0.0009887134656
0.0815,-0.000977183925
0.08152083333,-0.0009708645521
0.08154166667,-0.0009646567632
0.0815625,-0.0009612576105
0.08158333333,-0.0009571218397
0.08160416667,-0.0009569107206
0.081625,-0.000957691751
0.08164583333,-0.0009617966134
0.08166666667,-0.0009650621214
0.0816875,-0.0009693100583
0.08170833333,-0.0009729322046
0.08172916667,-0.0009769662283
0.08175,-0.0009799554246
0.08177083333,-0.000984248938
0.08179166667,-0.0009855352109
0.0818125,-0.0009866666514
0.08183333333,-0.0009845345048
0.08185416667,-0.0009818371618
0.081875,-0.0009772741469
0.08189583333,-0.0009756622021
0.08191666667,-0.0009723213152
0.0819375,-0.0009708445868
0.08195833333,-0.0009685308323
0.08197916667,-0.0009655588074
0.082,-0.000963009079
0.08202083333,-0.000960443751
0.08204166667,-0.0009554069838
0.0820625,-0.0009505948983
0.08208333333,-0.0009435497341
0.08210416667,-0.0009362188866
0.082125,-0.0009315314237
0.08214583333,-0.0009243296226
0.08216666667,-0.0009199986234
0.0821875,-0.0009086285718
0.08220833333,-0.0008991865907
0.08222916667,-0.0008822630043
0.08225,-0.0008693670388
0.08227083333,-0.0008570926148
0.08229166667,-0.0008472594782
0.0823125,-0.0008359129424
0.08233333333,-0.0008225215133
0.08235416667,-0.0008082152926
0.082375,-0.0007933337474
0.08239583333,-0.0007771328674
0.08241666667,-0.0007658275426
0.0824375,-0.0007513299352
0.08245833333,-0.000741919037
0.08247916667,-0.000726535276
0.0825,-0.0007148746517
0.08252083333,-0.0006988887326
0.08254166667,-0.0006865235046
0.0825625,-0.0006709379959
0.08258333333,-0.0006558296154
0.08260416667,-0.0006384589942
0.082625,-0.0006235418841
0.08264583333,-0.000605591049
0.08266666667,-0.0005891805631
0.0826875,-0.0005680694594
0.08270833333,-0.000550727651
0.08272916667,-0.0005269875401
0.08275,-0.0005024449783
0.08277083333,-0.0004754205584
0.08279166667,-0.0004498049675
0.0828125,-0.000423567486
0.08283333333,-0.0003966420772
0.08285416667,-0.0003659755748
0.082875,-0.0003355516237
0.08289583333,-0.0003029372892
0.08291666667,-0.0002728124091
0.0829375,-0.0002427859581
0.08295833333,-0.0002136978874
0.08297916667,-0.0001861153723
0.083,-0.0001578420051
0.08302083333,-0.0001302082965
0.08304166667,-0.0001029443665
0.0830625,-7.740877481e-05
0.08308333333,-5.0595223e-05
0.08310416667,-2.565961222e-05
0.083125,1.581394372e-06
0.08314583333,2.661939652e-05
0.08316666667,5.549619164e-05
0.0831875,8.147989138e-05
0.08320833333,0.0001067227713
0.08322916667,0.0001285673206
0.08325,0.0001496848708
0.08327083333,0.0001681644353
0.08329166667,0.000185449986
0.0833125,0.0001984581759
0.08333333333,0.0002101582068
0.08335416667,0.0002167229686
0.083375,0.0002278134489
0.08339583333,0.0002371719747
0.08341666667,0.0002464017889
0.0834375,0.000250784622
0.08345833333,0.0002593048266
0.08347916667,0.0002620664309
0.0835,0.0002670176909
0.08352083333,0.0002672203118
0.08354166667,0.0002703441423
0.0835625,0.0002664776403
0.08358333333,0.0002643560001
0.08360416667,0.000255619816
0.083625,0.0002507581376
0.08364583333,0.0002392684983
0.08366666667,0.0002328896226
0.0836875,0.0002219219896
0.08370833333,0.0002143115271
0.08372916667,0.0002037602244
0.08375,0.0001983339898
0.08377083333,0.0001921656949
0.08379166667,0.0001918563066
0.0838125,0.0001880595955
0.08383333333,0.0001861291239
0.08385416667,0.0001800088357
0.083875,0.0001794095879
0.08389583333,0.000174434681
0.08391666667,0.0001715810358
0.0839375,0.0001643462892
0.08395833333,0.000155588059
0.08397916667,0.0001423156937
0.084,0.0001293946407
0.08402083333,0.0001178474995
0.08404166667,0.0001079865397
0.0840625,9.516669525e-05
0.08408333333,8.234542474e-05
0.08410416667,6.829855556e-05
0.084125,5.614795373e-05
0.08414583333,4.434119182e-05
0.08416666667,3.20886611e-05
0.0841875,2.072301868e-05
0.08420833333,6.651596323e-06
0.08422916667,-4.978769084e-06
0.08425,-1.987775795e-05
0.08427083333,-3.189681229e-05
0.08429166667,-4.67606078e-05
0.0843125,-6.079413652e-05
0.08433333333,-7.463648217e-05
0.08435416667,-8.518341929e-05
0.084375,-9.599732584e-05
0.08439583333,-0.0001049245693
0.08441666667,-0.0001158444284
0.0844375,-0.0001229534682
0.08445833333,-0.0001296931587
0.08447916667,-0.0001327836944
0.0845,-0.0001350887323
0.08452083333,-0.0001333054242
0.08454166667,-0.00012856393
0.0845625,-0.0001203290594
0.08458333333,-0.0001081665323
0.08460416667,-9.079086158e-05
0.084625,-7.164607086e-05
0.08464583333,-4.903306035e-05
0.08466666667,-2.997961201e-05
0.0846875,-7.999162335e-06
0.08470833333,8.179079487e-06
0.08472916667,2.962739018e-05
0.08475,4.900165732e-05
0.08477083333,6.94556802e-05
0.08479166667,8.789142157e-05
0.0848125,0.000108745342
0.08483333333,0.000123209873
0.08485416667,0.0001414161088
0.084875,0.0001542738901
0.08489583333,0.0001702554291
0.08491666667,0.000184445089
0.0849375,0.0002009002637
0.08495833333,0.0002172484674
0.08497916667,0.0002356802433
0.085,0.0002522866707
0.08502083333,0.0002696121228
0.08504166667,0.0002842564136
0.0850625,0.0003007523483
0.08508333333,0.0003152145364
0.08510416667,0.0003323513083
0.085125,0.0003473699908
0.08514583333,0.0003643197415
0.08516666667,0.0003780911502
0.0851875,0.0003939689195
0.08520833333,0.0004069540882
0.08522916667,0.0004221321433
0.08525,0.0004361446481
0.08527083333,0.0004526335397
0.08529166667,0.0004693783994
0.0853125,0.0004872423597
0.08533333333,0.0005046545994
0.08535416667,0.0005225791247
0.085375,0.0005389431026
0.08539583333,0.000557175721
0.08541666667,0.0005719254259
0.0854375,0.0005884942948
0.08545833333,0.0006029907963
0.08547916667,0.0006180239143
0.0855,0.0006327638985
0.08552083333,0.0006462553283
0.08554166667,0.0006567447563
0.0855625,0.0006676095654
0.08558333333,0.0006767054438
0.08560416667,0.0006872685044
0.085625,0.0006962550106
0.08564583333,0.0007056408795
0.08566666667,0.0007148730219
0.0856875,0.00072139845
0.08570833333,0.0007235140656
0.08572916667,0.0007237120881
0.08575,0.0007237921818
0.08577083333,0.0007237777463
0.08579166667,0.0007256175741
0.0858125,0.000724353129
0.08583333333,0.0007216945523
0.08585416667,0.0007145974669
0.085875,0.0007094463217
0.08589583333,0.0007027862011
0.08591666667,0.0006960759638
0.0859375,0.0006885774201
0.08595833333,0.000683373597
0.08597916667,0.0006754515925
0.086,0.0006663054228
0.08602083333,0.000654836942
0.08604166667,0.0006451369845
0.0860625,0.0006354679936
0.08608333333,0.0006260367227
0.08610416667,0.0006156148738
0.086125,0.0006052231765
0.08614583333,0.0005926071899
0.08616666667,0.0005808896385
0.0861875,0.0005680490285
0.08620833333,0.0005579921417
0.08622916667,0.0005452387268
0.08625,0.0005356384208
0.08627083333,0.0005217489088
0.08629166667,0.0005116378306
0.0863125,0.0004989159643
0.08633333333,0.0004866231175
0.08635416667,0.0004728972272
0.086375,0.0004592661571
0.08639583333,0.0004469276464
0.08641666667,0.0004380842729
0.0864375,0.0004269689089
0.08645833333,0.000419901975
0.08647916667,0.0004119642253
0.0865,0.0004067801638
0.08652083333,0.0004004915245
0.08654166667,0.0003964686184
0.0865625,0.0003909063817
0.08658333333,0.0003877778363
0.08660416667,0.0003837493423
0.086625,0.0003791655181
0.08664583333,0.0003744496207
0.08666666667,0.000369792484
0.0866875,0.0003653855238
0.08670833333,0.0003622186778
0.08672916667,0.0003570019035
0.08675,0.0003520379832
0.08677083333,0.0003463026078
0.08679166667,0.000342534302
0.0868125,0.0003394610249
0.08683333333,0.0003363358555
0.08685416667,0.0003326561709
0.086875,0.0003288261942
0.08689583333,0.0003261647944
0.08691666667,0.0003238099744
0.0869375,0.0003235776385
0.08695833333,0.0003236559278
0.08697916667,0.0003267419524
0.087,0.0003295234637
0.08702083333,0.000332313095
0.08704166667,0.0003375487868
0.0870625,0.0003422235895
0.08708333333,0.0003481254098
0.08710416667,0.0003519263992
0.087125,0.0003540199541
0.08714583333,0.0003597609466
0.08716666667,0.0003653116582
0.0871875,0.0003718464286
0.08720833333,0.0003763405839
0.08722916667,0.0003815436212
0.08725,0.0003863800084
0.08727083333,0.0003947498044
0.08729166667,0.0003981714544
0.0873125,0.0004058794293
0.08733333333,0.0004075088364
0.08735416667,0.0004122331156
0.087375,0.0004116823548
0.08739583333,0.0004133834445
0.08741666667,0.000413822534
0.0874375,0.0004159101518
0.08745833333,0.0004157191142
0.08747916667,0.0004177364463
0.0875,0.000418823678
0.08752083333,0.0004242100695
0.08754166667,0.0004286954354
0.0875625,0.0004354951088
0.08758333333,0.0004391764814
0.08760416667,0.0004435885639
0.087625,0.0004485336831
