time,data
0,3.164467355e-09
2.083333333e-05,4.966624445e-08
4.166666667e-05,9.185311001e-08
6.25e-05,1.293807088e-07
8.333333333e-05,1.661653926e-07
0.0001041666667,2.05258047e-07
0.000125,2.471270761e-07
0.0001458333333,2.902157803e-07
0.0001666666667,3.306918472e-07
0.0001875,3.686659795e-07
0.0002083333333,4.054281249e-07
0.0002291666667,4.458822787e-07
0.00025,4.92658728e-07
0.0002708333333,5.456957979e-07
0.0002916666667,6.027304948e-07
0.0003125,6.595374202e-07
0.0003333333333,7.159578104e-07
0.0003541666667,7.717400194e-07
0.000375,8.297307659e-07
0.0003958333333,8.898913393e-07
0.0004166666667,9.5041338e-07
0.0004375,1.008886557e-06
0.0004583333333,1.061793569e-06
0.0004791666667,1.110097742e-06
0.0005,1.153841254e-06
0.0005208333333,1.196133098e-06
0.0005416666667,1.237795459e-06
0.0005625,1.279514777e-06
0.0005833333333,1.321932018e-06
0.0006041666667,1.36397523e-06
0.000625,1.406686238e-06
0.0006458333333,1.448111334e-06
0.0006666666667,1.489002329e-06
0.0006875,1.528404255e-06
0.0007083333333,1.567106324e-06
0.0007291666667,1.605098987e-06
0.00075,1.639385118e-06
0.0007708333333,1.667384367e-06
0.0007916666667,1.683109645e-06
0.0008125,1.686982614e-06
0.0008333333333,1.680108539e-06
0.0008541666667,1.668302389e-06
0.000875,1.6553347e-06
0.0008958333333,1.639204811e-06
0.0009166666667,1.617397857e-06
0.0009375,1.583908897e-06
0.0009583333333,1.542396831e-06
0.0009791666667,1.498491542e-06
0.001,1.460572093e-06
0.001020833333,1.431315013e-06
0.001041666667,1.402695148e-06
0.0010625,1.365862431e-06
0.001083333333,1.310849825e-06
0.001104166667,1.240988695e-06
0.001125,1.163656862e-06
0.001145833333,1.087091505e-06
0.001166666667,1.0112891e-06
0.0011875,9.256220324e-07
0.001208333333,8.20615071e-07
0.001229166667,6.919995599e-07
0.00125,5.506940397e-07
0.001270833333,4.108468374e-07
0.001291666667,2.841307776e-07
0.0013125,1.685810957e-07
0.001333333333,5.250234736e-08
0.001354166667,-7.354286424e-08
0.001375,-2.126395202e-07
0.001395833333,-3.523549594e-07
0.001416666667,-4.834959668e-07
0.0014375,-6.011281357e-07
0.001458333333,-7.152259514e-07
0.001479166667,-8.419373216e-07
0.0015,-9.892582966e-07
0.001520833333,-1.157716383e-06
0.001541666667,-1.332403713e-06
0.0015625,-1.503769681e-06
0.001583333333,-1.667192123e-06
0.001604166667,-1.828320478e-06
0.001625,-1.995974799e-06
0.001645833333,-2.169106438e-06
0.001666666667,-2.342444077e-06
0.0016875,-2.502054485e-06
0.001708333333,-2.642775144e-06
0.001729166667,-2.764512146e-06
0.00175,-2.875736755e-06
0.001770833333,-2.98446912e-06
0.001791666667,-3.093396117e-06
0.0018125,-3.203670531e-06
0.001833333333,-3.310746706e-06
0.001854166667,-3.417320613e-06
0.001875,-3.522447514e-06
0.001895833333,-3.629057119e-06
0.001916666667,-3.737370434e-06
0.0019375,-3.844250841e-06
0.001958333333,-3.951226518e-06
0.001979166667,-4.051384167e-06
0.002,-4.143364094e-06
0.002020833333,-4.216521575e-06
0.002041666667,-4.264840754e-06
0.0020625,-4.287292086e-06
0.002083333333,-4.287132924e-06
0.002104166667,-4.278286724e-06
0.002125,-4.263898518e-06
0.002145833333,-4.245635864e-06
0.002166666667,-4.213707143e-06
0.0021875,-4.161796369e-06
0.002208333333,-4.096557404e-06
0.002229166667,-4.029961019e-06
0.00225,-3.981110694e-06
0.002270833333,-3.949605798e-06
0.002291666667,-3.923318218e-06
0.0023125,-3.878214557e-06
0.002333333333,-3.799456636e-06
0.002354166667,-3.691468464e-06
0.002375,-3.570215313e-06
0.002395833333,-3.45291096e-06
0.002416666667,-3.335234396e-06
0.0024375,-3.19998253e-06
0.002458333333,-3.024294301e-06
0.002479166667,-2.805271379e-06
0.0025,-2.562889449e-06
0.002520833333,-2.326412186e-06
0.002541666667,-2.119325472e-06
0.0025625,-1.934412012e-06
0.002583333333,-1.753755669e-06
0.002604166667,-1.554049277e-06
0.002625,-1.335071715e-06
0.002645833333,-1.115236159e-06
0.002666666667,-9.132022001e-07
0.0026875,-7.370033472e-07
0.002708333333,-5.654291044e-07
0.002729166667,-3.735530925e-07
0.00275,-1.418943611e-07
0.002770833333,1.257159283e-07
0.002791666667,4.072164188e-07
0.0028125,6.853449008e-07
0.002833333333,9.502203966e-07
0.002854166667,1.213929522e-06
0.002875,1.483550591e-06
0.002895833333,1.761848239e-06
0.002916666667,2.035413218e-06
0.0029375,2.286290965e-06
0.002958333333,2.507075351e-06
0.002979166667,2.696664524e-06
0.003,2.868898264e-06
0.003020833333,3.03157276e-06
0.003041666667,3.192040367e-06
0.0030625,3.353268312e-06
0.003083333333,3.516380957e-06
0.003104166667,3.687531262e-06
0.003125,3.864332939e-06
0.003145833333,4.047223683e-06
0.003166666667,4.227294994e-06
0.0031875,4.404432275e-06
0.003208333333,4.579113465e-06
0.003229166667,4.752906989e-06
0.00325,4.921663276e-06
0.003270833333,5.065009191e-06
0.003291666667,5.167465133e-06
0.0033125,5.216625595e-06
0.003333333333,5.226223493e-06
0.003354166667,5.220697403e-06
0.003375,5.217539638e-06
0.003395833333,5.221396805e-06
0.003416666667,5.207862159e-06
0.0034375,5.16509499e-06
0.003458333333,5.092019364e-06
0.003479166667,5.01951763e-06
0.0035,4.981559414e-06
0.003520833333,4.987018201e-06
0.003541666667,5.015151601e-06
0.0035625,5.017030162e-06
0.003583333333,4.962885214e-06
0.003604166667,4.853346127e-06
0.003625,4.722411177e-06
0.003645833333,4.603636171e-06
0.003666666667,4.496841029e-06
0.0036875,4.371206614e-06
0.003708333333,4.181427357e-06
0.003729166667,3.91930007e-06
0.00375,3.612844694e-06
0.003770833333,3.322048769e-06
0.003791666667,3.08564654e-06
0.0038125,2.900942036e-06
0.003833333333,2.730479082e-06
0.003854166667,2.530194706e-06
0.003875,2.297414085e-06
0.003895833333,2.058076234e-06
0.003916666667,1.855207074e-06
0.0039375,1.700641292e-06
0.003958333333,1.5637969e-06
0.003979166667,1.398166432e-06
0.004,1.161828436e-06
0.004020833333,8.650785617e-07
0.004041666667,5.384434871e-07
0.0040625,2.257334017e-07
0.004083333333,-6.043768508e-08
0.004104166667,-3.349414044e-07
0.004125,-6.187825647e-07
0.004145833333,-9.222915764e-07
0.004166666667,-1.222303126e-06
0.0041875,-1.490870204e-06
0.004208333333,-1.701933343e-06
0.004229166667,-1.858029577e-06
0.00425,-1.979388117e-06
0.004270833333,-2.088182782e-06
0.004291666667,-2.205825695e-06
0.0043125,-2.329975132e-06
0.004333333333,-2.46687614e-06
0.004354166667,-2.606452654e-06
0.004375,-2.752970204e-06
0.004395833333,-2.903226004e-06
0.004416666667,-3.056194828e-06
0.0044375,-3.219464361e-06
0.004458333333,-3.38746554e-06
0.004479166667,-3.563415703e-06
0.0045,-3.721065468e-06
0.004520833333,-3.834359177e-06
0.004541666667,-3.878548341e-06
0.0045625,-3.84631312e-06
0.004583333333,-3.771631782e-06
0.004604166667,-3.682256875e-06
0.004625,-3.610195108e-06
0.004645833333,-3.537699513e-06
0.004666666667,-3.438076874e-06
0.0046875,-3.289345386e-06
0.004708333333,-3.106870736e-06
0.004729166667,-2.947180747e-06
0.00475,-2.853942988e-06
0.004770833333,-2.840837624e-06
0.004791666667,-2.853085334e-06
0.0048125,-2.823254135e-06
0.004833333333,-2.70692658e-06
0.004854166667,-2.518020437e-06
0.004875,-2.320647127e-06
0.004895833333,-2.152703928e-06
0.004916666667,-2.016661256e-06
0.0049375,-1.840290793e-06
0.004958333333,-1.568218863e-06
0.004979166667,-1.185146971e-06
0.005,-7.524159287e-07
0.005020833333,-3.659330332e-07
0.005041666667,-7.576733196e-08
0.0050625,1.233078564e-07
0.005083333333,3.0783022e-07
0.005104166667,5.320713967e-07
0.005125,8.015891808e-07
0.005145833333,1.063609261e-06
0.005166666667,1.249573756e-06
0.0051875,1.355318432e-06
0.005208333333,1.422161404e-06
0.005229166667,1.542593168e-06
0.00525,1.758446615e-06
0.005270833333,2.063351758e-06
0.005291666667,2.393649766e-06
0.0053125,2.689462235e-06
0.005333333333,2.939914793e-06
0.005354166667,3.165305998e-06
0.005375,3.411896614e-06
0.005395833333,3.675283779e-06
0.005416666667,3.929401373e-06
0.0054375,4.119277946e-06
0.005458333333,4.213386092e-06
0.005479166667,4.227044428e-06
0.0055,4.180758424e-06
0.005520833333,4.128177352e-06
0.005541666667,4.069873739e-06
0.0055625,4.023458587e-06
0.005583333333,3.978649147e-06
0.005604166667,3.93812843e-06
0.005625,3.914237823e-06
0.005645833333,3.894731435e-06
0.005666666667,3.891633696e-06
0.0056875,3.886645118e-06
0.005708333333,3.889150776e-06
0.005729166667,3.890951575e-06
0.00575,3.86901047e-06
0.005770833333,3.797526233e-06
0.005791666667,3.625504405e-06
0.0058125,3.360375558e-06
0.005833333333,3.013822607e-06
0.005854166667,2.651554496e-06
0.005875,2.301776703e-06
0.005895833333,1.963516752e-06
0.005916666667,1.603177338e-06
0.0059375,1.180737058e-06
0.005958333333,7.274317682e-07
0.005979166667,2.928288723e-07
0.006,-3.95887092e-08
0.006020833333,-2.635421197e-07
0.006041666667,-4.356057559e-07
0.0060625,-6.449591865e-07
0.006083333333,-9.701220733e-07
0.006104166667,-1.375957027e-06
0.006125,-1.812276651e-06
0.006145833333,-2.193451792e-06
0.006166666667,-2.53850817e-06
0.0061875,-2.919153076e-06
0.006208333333,-3.414739695e-06
0.006229166667,-4.053598332e-06
0.00625,-4.741516932e-06
0.006270833333,-5.373601653e-06
0.006291666667,-5.856746156e-06
0.0063125,-6.213936558e-06
0.006333333333,-6.530264272e-06
0.006354166667,-6.880566616e-06
0.006375,-7.281327271e-06
0.006395833333,-7.647081475e-06
0.006416666667,-7.91527782e-06
0.0064375,-8.049960343e-06
0.006458333333,-8.139067177e-06
0.006479166667,-8.276759218e-06
0.0065,-8.538124348e-06
0.006520833333,-8.906697985e-06
0.006541666667,-9.290856724e-06
0.0065625,-9.631447938e-06
0.006583333333,-9.884793144e-06
0.006604166667,-1.01102778e-05
0.006625,-1.03398479e-05
0.006645833333,-1.058094404e-05
0.006666666667,-1.079688354e-05
0.0066875,-1.089599573e-05
0.006708333333,-1.086949669e-05
0.006729166667,-1.07003807e-05
0.00675,-1.045970566e-05
0.006770833333,-1.018360854e-05
0.006791666667,-9.898499229e-06
0.0068125,-9.614611372e-06
0.006833333333,-9.315717762e-06
0.006854166667,-9.022888662e-06
0.006875,-8.726333363e-06
0.006895833333,-8.444411833e-06
0.006916666667,-8.161367987e-06
0.0069375,-7.877715689e-06
0.006958333333,-7.594780982e-06
0.006979166667,-7.292341706e-06
0.007,-6.96306779e-06
0.007020833333,-6.528907306e-06
0.007041666667,-5.971411156e-06
0.0070625,-5.254130883e-06
0.007083333333,-4.437247298e-06
0.007104166667,-3.58943862e-06
0.007125,-2.750935892e-06
0.007145833333,-1.934953161e-06
0.007166666667,-1.059305646e-06
0.0071875,-1.117818584e-07
0.007208333333,9.011229167e-07
0.007229166667,1.875398198e-06
0.00725,2.708506599e-06
0.007270833333,3.39963367e-06
0.007291666667,4.005667961e-06
0.0073125,4.694742074e-06
0.007333333333,5.521199455e-06
0.007354166667,6.485635822e-06
0.007375,7.466168881e-06
0.007395833333,8.372267985e-06
0.007416666667,9.222725566e-06
0.0074375,1.010767483e-05
0.007458333333,1.117118245e-05
0.007479166667,1.241018799e-05
0.0075,1.373383384e-05
0.007520833333,1.495721335e-05
0.007541666667,1.596816037e-05
0.0075625,1.679856905e-05
0.007583333333,1.754779623e-05
0.007604166667,1.836070987e-05
0.007625,1.921210423e-05
0.007645833333,2.003658483e-05
0.007666666667,2.069543552e-05
0.0076875,2.117272015e-05
0.007708333333,2.156440678e-05
0.007729166667,2.200168274e-05
0.00775,2.260567999e-05
0.007770833333,2.332473014e-05
0.007791666667,2.407759712e-05
0.0078125,2.473809036e-05
0.007833333333,2.528006553e-05
0.007854166667,2.575952021e-05
0.007875,2.621529893e-05
0.007895833333,2.668825073e-05
0.007916666667,2.708109787e-05
0.0079375,2.734092959e-05
0.007958333333,2.738923831e-05
0.007979166667,2.725508966e-05
0.008,2.699491051e-05
0.008020833333,2.66579882e-05
0.008041666667,2.62995527e-05
0.0080625,2.590004806e-05
0.008083333333,2.549383498e-05
0.008104166667,2.506594319e-05
0.008125,2.463887176e-05
0.008145833333,2.42082333e-05
0.008166666667,2.374331598e-05
0.0081875,2.326568574e-05
0.008208333333,2.273822429e-05
0.008229166667,2.220507122e-05
0.00825,2.159879477e-05
0.008270833333,2.087962639e-05
0.008291666667,1.996600986e-05
0.0083125,1.882318429e-05
0.008333333333,1.752877506e-05
0.008354166667,1.614642133e-05
0.008375,1.479394086e-05
0.008395833333,1.343869644e-05
0.008416666667,1.203034844e-05
0.0084375,1.050662922e-05
0.008458333333,8.872120816e-06
0.008479166667,7.278067642e-06
0.0085,5.813486041e-06
0.008520833333,4.562054983e-06
0.008541666667,3.385872787e-06
0.0085625,2.137906222e-06
0.008583333333,6.847101304e-07
0.008604166667,-9.600983049e-07
0.008625,-2.645222139e-06
0.008645833333,-4.275544597e-06
0.008666666667,-5.812930794e-06
0.0086875,-7.42086786e-06
0.008708333333,-9.225776921e-06
0.008729166667,-1.127549422e-05
0.00875,-1.344599423e-05
0.008770833333,-1.549428816e-05
0.008791666667,-1.731172961e-05
0.0088125,-1.886371501e-05
0.008833333333,-2.034717727e-05
0.008854166667,-2.186734309e-05
0.008875,-2.346618021e-05
0.008895833333,-2.502507959e-05
0.008916666667,-2.638155092e-05
0.0089375,-2.753009539e-05
0.008958333333,-2.853881051e-05
0.008979166667,-2.963366205e-05
0.009,-3.090484461e-05
0.009020833333,-3.234622636e-05
0.009041666667,-3.382794603e-05
0.0090625,-3.518498488e-05
0.009083333333,-3.641310468e-05
0.009104166667,-3.751382974e-05
0.009125,-3.861570076e-05
0.009145833333,-3.969197132e-05
0.009166666667,-4.069587885e-05
0.0091875,-4.151078974e-05
0.009208333333,-4.205247387e-05
0.009229166667,-4.23596066e-05
0.00925,-4.24663267e-05
0.009270833333,-4.249169069e-05
0.009291666667,-4.245483433e-05
0.0093125,-4.238988186e-05
0.009333333333,-4.229673868e-05
0.009354166667,-4.216090747e-05
0.009375,-4.201270349e-05
0.009395833333,-4.180334145e-05
0.009416666667,-4.157153307e-05
0.0094375,-4.127320062e-05
0.009458333333,-4.095581971e-05
0.009479166667,-4.059000275e-05
0.0095,-4.012309364e-05
0.009520833333,-3.947491496e-05
0.009541666667,-3.851873407e-05
0.0095625,-3.728270894e-05
0.009583333333,-3.580926932e-05
0.009604166667,-3.426611147e-05
0.009625,-3.272954928e-05
0.009645833333,-3.116737207e-05
0.009666666667,-2.950398994e-05
0.0096875,-2.761684664e-05
0.009708333333,-2.560726534e-05
0.009729166667,-2.359661812e-05
0.00975,-2.180276351e-05
0.009770833333,-2.023378875e-05
0.009791666667,-1.874669033e-05
0.0098125,-1.711161167e-05
0.009833333333,-1.51518143e-05
0.009854166667,-1.295311085e-05
0.009875,-1.066683944e-05
0.009895833333,-8.499707292e-06
0.009916666667,-6.412147286e-06
0.0099375,-4.219373295e-06
0.009958333333,-1.725714355e-06
0.009979166667,1.14905697e-06
0.01,4.573142178e-06
0.01002083333,8.109052942e-06
0.01004166667,1.073341082e-05
0.0100625,1.250878631e-05
0.01008333333,1.397420692e-05
0.01010416667,1.573122609e-05
0.010125,1.802149927e-05
0.01014583333,2.075395787e-05
0.01016666667,2.335235149e-05
0.0101875,2.548549674e-05
0.01020833333,2.712424066e-05
0.01022916667,2.863057307e-05
0.01025,3.036826638e-05
0.01027083333,3.256299897e-05
0.01029166667,3.51351373e-05
0.0103125,3.780992483e-05
0.01033333333,4.025184899e-05
0.01035416667,4.23844358e-05
0.010375,4.410540714e-05
0.01039583333,4.562806134e-05
0.01041666667,4.69405968e-05
0.0104375,4.81749812e-05
0.01045833333,4.944283137e-05
0.01047916667,5.074240471e-05
0.0105,5.19724781e-05
0.01052083333,5.301736383e-05
0.01054166667,5.373069507e-05
0.0105625,5.407943172e-05
0.01058333333,5.420908201e-05
0.01060416667,5.433785918e-05
0.010625,5.462673653e-05
0.01064583333,5.522408901e-05
0.01066666667,5.580871948e-05
0.0106875,5.635432171e-05
0.01070833333,5.655147834e-05
0.01072916667,5.654486813e-05
0.01075,5.62740388e-05
0.01077083333,5.579705976e-05
0.01079166667,5.524302833e-05
0.0108125,5.4468499e-05
0.01083333333,5.359514762e-05
0.01085416667,5.263329876e-05
0.010875,5.148657874e-05
0.01089583333,5.015333227e-05
0.01091666667,4.827910016e-05
0.0109375,4.618847379e-05
0.01095833333,4.386010187e-05
0.01097916667,4.195610381e-05
0.011,4.045909373e-05
0.01102083333,3.937475412e-05
0.01104166667,3.83918923e-05
0.0110625,3.68288529e-05
0.01108333333,3.470761658e-05
0.01110416667,3.210587602e-05
0.011125,2.943917025e-05
0.01114583333,2.714867514e-05
0.01116666667,2.51321253e-05
0.0111875,2.324990055e-05
0.01120833333,2.073771066e-05
0.01122916667,1.768008224e-05
0.01125,1.40147813e-05
0.01127083333,1.034876368e-05
0.01129166667,7.024043043e-06
0.0113125,4.259810794e-06
0.01133333333,1.936996796e-06
0.01135416667,-2.81689978e-07
0.011375,-2.578991143e-06
0.01139583333,-5.061418051e-06
0.01141666667,-7.73409738e-06
0.0114375,-1.043943939e-05
0.01145833333,-1.324360892e-05
0.01147916667,-1.581197284e-05
0.0115,-1.848138891e-05
0.01152083333,-2.090389717e-05
0.01154166667,-2.339421917e-05
0.0115625,-2.591436169e-05
0.01158333333,-2.860367022e-05
0.01160416667,-3.160212509e-05
0.011625,-3.456529885e-05
0.01164583333,-3.744512287e-05
0.01166666667,-4.005230949e-05
0.0116875,-4.21354016e-05
0.01170833333,-4.390240792e-05
0.01172916667,-4.526678094e-05
0.01175,-4.66211568e-05
0.01177083333,-4.788390652e-05
0.01179166667,-4.931514923e-05
0.0118125,-5.065050573e-05
0.01183333333,-5.202806278e-05
0.01185416667,-5.325090387e-05
0.011875,-5.422020695e-05
0.01189583333,-5.519594197e-05
0.01191666667,-5.603906175e-05
0.0119375,-5.700681504e-05
0.01195833333,-5.825122571e-05
0.01197916667,-5.943358337e-05
0.012,-6.066829883e-05
0.01202083333,-6.118656165e-05
0.01204166667,-6.117868907e-05
0.0120625,-6.045359987e-05
0.01208333333,-5.953597065e-05
0.01210416667,-5.841876191e-05
0.012125,-5.743323709e-05
0.01214583333,-5.691164188e-05
0.01216666667,-5.643004624e-05
0.0121875,-5.57334497e-05
0.01220833333,-5.480725667e-05
0.01222916667,-5.341753422e-05
0.01225,-5.207142021e-05
0.01227083333,-5.053123823e-05
0.01229166667,-4.929800343e-05
0.0123125,-4.813524356e-05
0.01233333333,-4.73076434e-05
0.01235416667,-4.60845622e-05
0.012375,-4.440180055e-05
0.01239583333,-4.222182906e-05
0.01241666667,-3.951519466e-05
0.0124375,-3.652713349e-05
0.01245833333,-3.387187462e-05
0.01247916667,-3.166290116e-05
0.0125,-2.984670573e-05
0.01252083333,-2.798451897e-05
0.01254166667,-2.581213994e-05
0.0125625,-2.250494435e-05
0.01258333333,-1.885993879e-05
0.01260416667,-1.506773424e-05
0.012625,-1.197647543e-05
0.01264583333,-9.996681911e-06
0.01266666667,-8.891915968e-06
0.0126875,-7.909154192e-06
0.01270833333,-6.348415354e-06
0.01272916667,-3.830686637e-06
0.01275,-5.07984339e-07
0.01277083333,3.371473213e-06
0.01279166667,6.456329629e-06
0.0128125,9.117386981e-06
0.01283333333,1.116661588e-05
0.01285416667,1.320672072e-05
0.012875,1.586862345e-05
0.01289583333,1.914720633e-05
0.01291666667,2.247262091e-05
0.0129375,2.538363879e-05
0.01295833333,2.737344948e-05
0.01297916667,2.844124174e-05
0.013,2.896235674e-05
0.01302083333,2.983189916e-05
0.01304166667,3.105886208e-05
0.0130625,3.313770867e-05
0.01308333333,3.526235741e-05
0.01310416667,3.71666174e-05
0.013125,3.866392217e-05
0.01314583333,3.963642666e-05
0.01316666667,4.029918637e-05
0.0131875,4.133519542e-05
0.01320833333,4.257268301e-05
0.01322916667,4.402650302e-05
0.01325,4.582899055e-05
0.01327083333,4.683945372e-05
0.01329166667,4.709306086e-05
0.0133125,4.746838022e-05
0.01333333333,4.670897397e-05
0.01335416667,4.641285341e-05
0.013375,4.624454959e-05
0.01339583333,4.586396972e-05
0.01341666667,4.558808723e-05
0.0134375,4.47909988e-05
0.01345833333,4.350854942e-05
0.01347916667,4.252248618e-05
0.0135,4.162508412e-05
0.01352083333,4.13212656e-05
0.01354166667,4.12557456e-05
0.0135625,4.153001646e-05
0.01358333333,4.12070367e-05
0.01360416667,4.032748257e-05
0.013625,3.864810424e-05
0.01364583333,3.670119622e-05
0.01366666667,3.472878234e-05
0.0136875,3.319906682e-05
0.01370833333,3.195935642e-05
0.01372916667,3.081372779e-05
0.01375,2.903588029e-05
0.01377083333,2.65807339e-05
0.01379166667,2.366107219e-05
0.0138125,2.074178883e-05
0.01383333333,1.850027002e-05
0.01385416667,1.713824531e-05
0.013875,1.600580435e-05
0.01389583333,1.556231655e-05
0.01391666667,1.467489528e-05
0.0139375,1.318744035e-05
0.01395833333,1.115260147e-05
0.01397916667,8.42868576e-06
0.014,5.616563612e-06
0.01402083333,3.575989012e-06
0.01404166667,2.007009243e-06
0.0140625,9.329435215e-07
0.01408333333,-4.295475264e-08
0.01410416667,-1.431041255e-06
0.014125,-4.17346655e-06
0.01414583333,-7.345929134e-06
0.01416666667,-1.066798723e-05
0.0141875,-1.315388454e-05
0.01420833333,-1.394027549e-05
0.01422916667,-1.360777878e-05
0.01425,-1.34232705e-05
0.01427083333,-1.361105205e-05
0.01429166667,-1.53955134e-05
0.0143125,-1.808468369e-05
0.01433333333,-2.009351192e-05
0.01435416667,-2.042586857e-05
0.014375,-1.932474152e-05
0.01439583333,-1.752734352e-05
0.01441666667,-1.707956835e-05
0.0144375,-1.81504638e-05
0.01445833333,-2.157637573e-05
0.01447916667,-2.547451913e-05
0.0145,-2.907940325e-05
0.01452083333,-3.035349982e-05
0.01454166667,-2.905064321e-05
0.0145625,-2.5965026e-05
0.01458333333,-2.207146463e-05
0.01460416667,-1.888769111e-05
0.014625,-1.805801367e-05
0.01464583333,-1.898163646e-05
0.01466666667,-2.166531522e-05
0.0146875,-2.37095428e-05
0.01470833333,-2.38864759e-05
0.01472916667,-2.147920532e-05
0.01475,-1.780229468e-05
0.01477083333,-1.480568608e-05
0.01479166667,-1.451616481e-05
0.0148125,-1.755814992e-05
0.01483333333,-2.165910337e-05
0.01485416667,-2.297301216e-05
0.014875,-1.924589378e-05
0.01489583333,-1.14701761e-05
0.01491666667,-2.719346412e-06
0.0149375,2.602614586e-06
0.01495833333,1.026131031e-06
0.01497916667,-5.62866262e-06
0.015,-1.38604255e-05
0.01502083333,-1.75905534e-05
0.01504166667,-1.437053925e-05
0.0150625,-5.505326499e-06
0.01508333333,5.243532541e-06
0.01510416667,1.286350926e-05
0.015125,1.37330353e-05
0.01514583333,9.763398339e-06
0.01516666667,3.885153092e-06
0.0151875,1.150600383e-06
0.01520833333,2.499717084e-06
0.01522916667,7.4915406e-06
0.01525,1.270699522e-05
0.01527083333,1.582024925e-05
0.01529166667,1.524754407e-05
0.0153125,1.181894004e-05
0.01533333333,8.629148397e-06
0.01535416667,8.056671504e-06
0.015375,1.057317604e-05
0.01539583333,1.707173578e-05
0.01541666667,2.387947461e-05
0.0154375,2.888702875e-05
0.01545833333,2.920083716e-05
0.01547916667,2.562516602e-05
0.0155,1.945243457e-05
0.01552083333,1.371996586e-05
0.01554166667,1.157947281e-05
0.0155625,1.339912251e-05
0.01558333333,1.786570283e-05
0.01560416667,2.223874617e-05
0.015625,2.342654989e-05
0.01564583333,2.17241577e-05
0.01566666667,1.7694294e-05
0.0156875,1.431401506e-05
0.01570833333,1.364470518e-05
0.01572916667,1.672100552e-05
0.01575,2.03147647e-05
0.01577083333,2.259780194e-05
0.01579166667,2.097244214e-05
0.0158125,1.55070793e-05
0.01583333333,9.086224964e-06
0.01585416667,4.381682174e-06
0.015875,3.52917732e-06
0.01589583333,5.986386896e-06
0.01591666667,9.130157196e-06
0.0159375,1.098459143e-05
0.01595833333,8.266740224e-06
0.01597916667,3.316493576e-06
0.016,-2.593359113e-06
0.01602083333,-6.403138286e-06
0.01604166667,-7.386090601e-06
0.0160625,-5.185806913e-06
0.01608333333,-3.248617986e-06
0.01610416667,-3.803431582e-06
0.016125,-6.615147413e-06
0.01614583333,-1.126693314e-05
0.01616666667,-1.535915362e-05
0.0161875,-1.783868538e-05
0.01620833333,-1.810015601e-05
0.01622916667,-1.645843258e-05
0.01625,-1.584814345e-05
0.01627083333,-1.729663927e-05
0.01629166667,-2.145972758e-05
0.0163125,-2.68806125e-05
0.01633333333,-3.219776045e-05
0.01635416667,-3.506974099e-05
0.016375,-3.5597026e-05
0.01639583333,-3.425378236e-05
0.01641666667,-3.138034663e-05
0.0164375,-2.909238901e-05
0.01645833333,-2.881934961e-05
0.01647916667,-3.16037731e-05
0.0165,-3.52721363e-05
0.01652083333,-3.830602509e-05
0.01654166667,-4.029024058e-05
0.0165625,-3.973386629e-05
0.01658333333,-3.909327643e-05
0.01660416667,-3.746780567e-05
0.016625,-3.866895349e-05
0.01664583333,-4.102839375e-05
0.01666666667,-4.396395161e-05
0.0166875,-4.554643601e-05
0.01670833333,-4.431788693e-05
0.01672916667,-4.108163921e-05
0.01675,-3.630614447e-05
0.01677083333,-3.252385795e-05
0.01679166667,-3.276828284e-05
0.0168125,-3.532769551e-05
0.01683333333,-3.863048551e-05
0.01685416667,-4.009913391e-05
0.016875,-3.786099114e-05
0.01689583333,-3.189955169e-05
0.01691666667,-2.553553713e-05
0.0169375,-2.115355528e-05
0.01695833333,-2.100702113e-05
0.01697916667,-2.348107955e-05
0.017,-2.723685611e-05
0.01702083333,-2.770081483e-05
0.01704166667,-2.46618165e-05
0.0170625,-1.91845138e-05
0.01708333333,-1.272559166e-05
0.01710416667,-8.559843991e-06
0.017125,-6.811297226e-06
0.01714583333,-6.484892765e-06
0.01716666667,-5.763862646e-06
0.0171875,-1.916069323e-06
0.01720833333,3.734618758e-06
0.01722916667,1.08075692e-05
0.01725,1.619151408e-05
0.01727083333,1.912957305e-05
0.01729166667,1.852311834e-05
0.0173125,1.634386535e-05
0.01733333333,1.424611401e-05
0.01735416667,1.4543426e-05
0.017375,1.856698509e-05
0.01739583333,2.588457755e-05
0.01741666667,3.543216008e-05
0.0174375,4.409672329e-05
0.01745833333,4.887452087e-05
0.01747916667,4.965608605e-05
0.0175,4.752523455e-05
0.01752083333,4.399015597e-05
0.01754166667,4.412467388e-05
0.0175625,4.986643762e-05
0.01758333333,5.771771612e-05
0.01760416667,6.558164023e-05
0.017625,7.023805665e-05
0.01764583333,6.881718582e-05
0.01766666667,6.430279609e-05
0.0176875,6.124765059e-05
0.01770833333,6.311199832e-05
0.01772916667,6.927151117e-05
0.01775,7.796339924e-05
0.01777083333,8.378596976e-05
0.01779166667,8.266214718e-05
0.0178125,7.84539734e-05
0.01783333333,7.2257586e-05
0.01785416667,7.110471779e-05
0.017875,7.377703878e-05
0.01789583333,8.114324737e-05
0.01791666667,8.772798174e-05
0.0179375,9.048900392e-05
0.01795833333,8.936223458e-05
0.01797916667,8.455372881e-05
0.018,7.980254304e-05
0.01802083333,7.65480072e-05
0.01804166667,7.472322613e-05
0.0180625,7.625998114e-05
0.01808333333,7.614397327e-05
0.01810416667,7.582621765e-05
0.018125,7.26957951e-05
0.01814583333,6.980680337e-05
0.01816666667,6.754063361e-05
0.0181875,6.557136658e-05
0.01820833333,6.476590352e-05
0.01822916667,6.47148845e-05
0.01825,6.441064761e-05
0.01827083333,6.224337267e-05
0.01829166667,5.922525088e-05
0.0183125,5.32562517e-05
0.01833333333,4.74467779e-05
0.01835416667,4.333092147e-05
0.018375,3.83269944e-05
0.01839583333,3.589421613e-05
0.01841666667,3.288695734e-05
0.0184375,2.895525722e-05
0.01845833333,2.425465937e-05
0.01847916667,1.945455733e-05
0.0185,1.68217648e-05
0.01852083333,1.382615119e-05
0.01854166667,1.122070898e-05
0.0185625,5.539031463e-06
0.01858333333,5.11418591e-07
0.01860416667,-5.323838195e-06
0.018625,-1.154863003e-05
0.01864583333,-1.382497612e-05
0.01866666667,-1.61909993e-05
0.0186875,-1.802486804e-05
0.01870833333,-2.249469799e-05
0.01872916667,-2.821157068e-05
0.01875,-3.538977398e-05
0.01877083333,-4.106984488e-05
0.01879166667,-4.517889829e-05
0.0188125,-4.974165131e-05
0.01883333333,-5.210944437e-05
0.01885416667,-5.702636554e-05
0.018875,-6.171446876e-05
0.01889583333,-6.540165487e-05
0.01891666667,-6.895864499e-05
0.0189375,-6.962356565e-05
0.01895833333,-7.15392307e-05
0.01897916667,-7.388437371e-05
0.019,-7.75346416e-05
0.01902083333,-7.977116184e-05
0.01904166667,-8.288997924e-05
0.0190625,-8.523441647e-05
0.01908333333,-8.730929403e-05
0.01910416667,-9.155077714e-05
0.019125,-9.695843619e-05
0.01914583333,-0.0001016322931
0.01916666667,-0.0001024581652
0.0191875,-0.0001007043829
0.01920833333,-9.717799549e-05
0.01922916667,-9.259166109e-05
0.01925,-9.501427121e-05
0.01927083333,-9.97441166e-05
0.01929166667,-0.0001055325702
0.0193125,-0.0001089417274
0.01933333333,-0.0001057839254
0.01935416667,-9.859524289e-05
0.019375,-9.13660333e-05
0.01939583333,-8.800532669e-05
0.01941666667,-8.953802899e-05
0.0194375,-9.410460916e-05
0.01945833333,-9.874496754e-05
0.01947916667,-9.847178444e-05
0.0195,-9.400978888e-05
0.01952083333,-8.657204307e-05
0.01954166667,-8.124135638e-05
0.0195625,-7.784295303e-05
0.01958333333,-7.758595166e-05
0.01960416667,-7.693860971e-05
0.019625,-7.473915321e-05
0.01964583333,-7.010711124e-05
0.01966666667,-6.376560486e-05
0.0196875,-5.898582458e-05
0.01970833333,-5.370755753e-05
0.01972916667,-4.830324178e-05
0.01975,-4.368438385e-05
0.01977083333,-3.786183515e-05
0.01979166667,-3.676220149e-05
0.0198125,-3.614950765e-05
0.01983333333,-3.66923523e-05
0.01985416667,-3.573437061e-05
0.019875,-2.913599747e-05
0.01989583333,-1.671481732e-05
0.01991666667,-2.722648787e-06
0.0199375,9.597742974e-06
0.01995833333,1.457545932e-05
0.01997916667,8.929036085e-06
0.02,-4.734560935e-05
0.02002083333,-4.934766912e-05
0.02004166667,-4.26386905e-05
0.0200625,-2.710715125e-05
0.02008333333,-9.65788422e-06
0.02010416667,8.650495147e-07
0.020125,2.225278877e-07
0.02014583333,-7.573085895e-06
0.02016666667,-1.700354551e-05
0.0201875,-1.671793871e-05
0.02020833333,-4.813424312e-06
0.02022916667,1.15137409e-05
0.02025,2.588686039e-05
0.02027083333,2.820274676e-05
0.02029166667,1.816066288e-05
0.0203125,5.131696525e-06
0.02033333333,-3.530461981e-06
0.02035416667,2.913802746e-07
0.020375,1.34036527e-05
0.02039583333,2.921008854e-05
0.02041666667,3.575510345e-05
0.0204375,3.288479638e-05
0.02045833333,2.233828127e-05
0.02047916667,9.443130693e-06
0.0205,2.798478818e-06
0.02052083333,3.542634659e-06
0.02054166667,9.678282368e-06
0.0205625,1.506590343e-05
0.02058333333,1.638030517e-05
0.02060416667,1.073628664e-05
0.020625,3.713859769e-06
0.02064583333,-3.267821739e-06
0.02066666667,-9.696872439e-06
0.0206875,-9.793300705e-06
0.02070833333,-1.05256695e-05
0.02072916667,-9.41655162e-06
0.02075,-9.728726582e-06
0.02077083333,-1.44913065e-05
0.02079166667,-2.100458369e-05
0.0208125,-2.871597826e-05
0.02083333333,-3.587306128e-05
0.02085416667,-4.053874727e-05
0.020875,-4.319969594e-05
0.02089583333,-4.445126251e-05
0.02091666667,-4.67220234e-05
0.0209375,-4.916345642e-05
0.02095833333,-5.47123127e-05
0.02097916667,-6.43222229e-05
0.021,-7.604726125e-05
0.02102083333,-8.588148921e-05
0.02104166667,-9.236240294e-05
0.0210625,-9.206646064e-05
0.02108333333,-9.251432493e-05
0.02110416667,-9.566560038e-05
0.021125,-0.000103472943
0.02114583333,-0.0001179061073
0.02116666667,-0.0001351438696
0.0211875,-0.0001520899823
0.02120833333,-0.0001614710636
0.02122916667,-0.0001643137948
0.02125,-0.0001652818464
0.02127083333,-0.0001673629013
0.02129166667,-0.0001752337121
0.0213125,-0.0001876827009
0.02133333333,-0.000200045848
0.02135416667,-0.0002073758515
0.021375,-0.000210588536
0.02139583333,-0.0002119881829
0.02141666667,-0.0002180966694
0.0214375,-0.0002285197406
0.02145833333,-0.000242738708
0.02147916667,-0.0002587868075
0.0215,-0.0002697186428
0.02152083333,-0.0002750939748
0.02154166667,-0.0002766866528
0.0215625,-0.000276137871
0.02158333333,-0.0002786460682
0.02160416667,-0.0002848999284
0.021625,-0.0002943027648
0.02164583333,-0.00030487607
0.02166666667,-0.0003180186322
0.0216875,-0.0003259796067
0.02170833333,-0.0003324716818
0.02172916667,-0.0003346920712
0.02175,-0.0003361195559
0.02177083333,-0.0003393192019
0.02179166667,-0.0003434069804
0.0218125,-0.0003501024039
0.02183333333,-0.0003599294869
0.02185416667,-0.0003654018801
0.021875,-0.0003687744902
0.02189583333,-0.0003664125688
0.02191666667,-0.0003657773486
0.0219375,-0.0003732745827
0.02195833333,-0.000386275904
0.02197916667,-0.0004067022237
0.022,-0.0004286409239
0.02202083333,-0.0004383989144
0.02204166667,-0.0004369621456
0.0220625,-0.000426880928
0.02208333333,-0.000413098518
0.02210416667,-0.0004077529011
0.022125,-0.0004154161725
0.02214583333,-0.0004262484144
0.02216666667,-0.0004432145215
0.0221875,-0.0004482990189
0.02220833333,-0.0004420464393
0.02222916667,-0.0004258456756
0.02225,-0.0004075533361
0.02227083333,-0.0004052564909
0.02229166667,-0.0004216893867
0.0223125,-0.0004477472103
0.02233333333,-0.0004684533342
0.02235416667,-0.0004715649411
0.022375,-0.0004535008047
0.02239583333,-0.0004202064301
0.02241666667,-0.0003953469277
0.0224375,-0.0003892295645
0.02245833333,-0.0004082388477
0.02247916667,-0.0004405524815
0.0225,-0.0004650154733
0.02252083333,-0.0004681386636
0.02254166667,-0.000450575084
0.0225625,-0.0004240580602
0.02258333333,-0.0004048814299
0.02260416667,-0.0004022966605
0.022625,-0.0004197571834
0.02264583333,-0.0004414522555
0.02266666667,-0.0004557547509
0.0226875,-0.0004560372035
0.02270833333,-0.0004484849051
0.02272916667,-0.0004401115002
0.02275,-0.0004377485602
0.02277083333,-0.0004442937206
0.02279166667,-0.0004585644929
0.0228125,-0.0004728740605
0.02283333333,-0.0004801801406
0.02285416667,-0.0004812435945
0.022875,-0.0004804235068
0.02289583333,-0.0004751470988
0.02291666667,-0.0004759242875
0.0229375,-0.0004831241968
0.02295833333,-0.0004981631646
0.02297916667,-0.0005183836911
0.023,-0.0005385937402
0.02302083333,-0.0005494274083
0.02304166667,-0.0005496416707
0.0230625,-0.0005381997908
0.02308333333,-0.0005249703536
0.02310416667,-0.0005223034532
0.023125,-0.0005347151309
0.02314583333,-0.00055514212
0.02316666667,-0.0005795129109
0.0231875,-0.0005983812152
0.02320833333,-0.0005966873141
0.02322916667,-0.0005881985999
0.02325,-0.0005793198943
0.02327083333,-0.000576655264
0.02329166667,-0.0005836322089
0.0233125,-0.0005946420133
0.02333333333,-0.0006043220055
0.02335416667,-0.0006031395751
0.023375,-0.0005965433083
0.02339583333,-0.0005856425851
0.02341666667,-0.0005818307982
0.0234375,-0.0005834883195
0.02345833333,-0.0005881093675
0.02347916667,-0.0005976083339
0.0235,-0.0006059664884
0.02352083333,-0.0006160452031
0.02354166667,-0.0006241501542
0.0235625,-0.0006252314779
0.02358333333,-0.0006224033423
0.02360416667,-0.0006170311826
0.023625,-0.0006133791758
0.02364583333,-0.0006170910783
0.02366666667,-0.0006300318637
0.0236875,-0.0006399419508
0.02370833333,-0.0006568562239
0.02372916667,-0.0006629096461
0.02375,-0.0006637010374
0.02377083333,-0.0006589920959
0.02379166667,-0.0006588374963
0.0238125,-0.0006602974609
0.02383333333,-0.0006802285789
0.02385416667,-0.0006981626502
0.023875,-0.0007125874981
0.02389583333,-0.0007188245072
0.02391666667,-0.0007142405375
0.0239375,-0.0007059936761
0.02395833333,-0.0007028453401
0.02397916667,-0.0007060329081
0.024,-0.0007197142113
0.02402083333,-0.0007340051816
0.02404166667,-0.0007438973989
0.0240625,-0.0007468361291
0.02408333333,-0.0007448670221
0.02410416667,-0.0007350828964
0.024125,-0.000731928274
0.02414583333,-0.0007354238769
0.02416666667,-0.0007478292682
0.0241875,-0.0007613132475
0.02420833333,-0.0007737785927
0.02422916667,-0.0007792424294
0.02425,-0.0007794422563
0.02427083333,-0.0007767506177
0.02429166667,-0.0007781143649
0.0243125,-0.0007850422408
0.02433333333,-0.0007958950591
0.02435416667,-0.0008044546121
0.024375,-0.0008122895379
0.02439583333,-0.0008152622613
0.02441666667,-0.0008170859655
0.0244375,-0.0008259770693
0.02445833333,-0.0008436562493
0.02447916667,-0.0008650094969
0.0245,-0.000889568415
0.02452083333,-0.0009063362377
0.02454166667,-0.0009068567888
0.0245625,-0.0009055006667
0.02458333333,-0.0009040709119
0.02460416667,-0.0009044308099
0.024625,-0.0009124378557
0.02464583333,-0.000925420376
0.02466666667,-0.0009365704027
0.0246875,-0.0009426667821
0.02470833333,-0.0009408807964
0.02472916667,-0.0009309640154
0.02475,-0.0009231787408
0.02477083333,-0.0009108954691
0.02479166667,-0.000914454984
0.0248125,-0.0009236324113
0.02483333333,-0.0009431103244
0.02485416667,-0.0009583750507
0.024875,-0.0009698533104
0.02489583333,-0.000959339377
0.02491666667,-0.0009339368553
0.0249375,-0.0009055942646
0.02495833333,-0.0008827872807
0.02497916667,-0.0008743306389
0.025,-0.0008869940066
0.02502083333,-0.0008909813478
0.02504166667,-0.0008867556462
0.0250625,-0.0008618745487
0.02508333333,-0.0008260555333
0.02510416667,-0.0007906011306
0.025125,-0.0007740870933
0.02514583333,-0.0007680275012
0.02516666667,-0.0007796860882
0.0251875,-0.0007933499874
0.02520833333,-0.0007935976028
0.02522916667,-0.0008000242524
0.02525,-0.0008049250464
0.02527083333,-0.0008206717321
0.02529166667,-0.0008452343754
0.0253125,-0.0008818395436
0.02533333333,-0.0009057318675
0.02535416667,-0.0009110443643
0.025375,-0.0009017902776
0.02539583333,-0.0008921601111
0.02541666667,-0.000887405884
0.0254375,-0.0008991318173
0.02545833333,-0.0009106037905
0.02547916667,-0.0009218940977
0.0255,-0.0009266031557
0.02552083333,-0.000930843933
0.02554166667,-0.0009306991706
0.0255625,-0.0009459741414
0.02558333333,-0.0009612130234
0.02560416667,-0.000973646238
0.025625,-0.0009903628379
0.02564583333,-0.0009910666849
0.02566666667,-0.0009888166096
0.0256875,-0.0009768146556
0.02570833333,-0.0009737026412
0.02572916667,-0.0009784896392
0.02575,-0.0009861270664
0.02577083333,-0.0009862019215
0.02579166667,-0.000986577943
0.0258125,-0.0009665564867
0.02583333333,-0.0009449771605
0.02585416667,-0.0009118693997
0.025875,-0.0008792951703
0.02589583333,-0.0008438014775
0.02591666667,-0.0008271135157
0.0259375,-0.0008124702144
0.02595833333,-0.0007899448392
0.02597916667,-0.0007737418055
0.026,-0.0007736174739
0.02602083333,-0.0007674968801
0.02604166667,-0.0007656559465
0.0260625,-0.0007728262572
0.02608333333,-0.0007705022581
0.02610416667,-0.0007628069143
0.026125,-0.000744863064
0.02614583333,-0.0007346888888
0.02616666667,-0.0007297855918
0.0261875,-0.0007335673436
0.02620833333,-0.0007442617207
0.02622916667,-0.0007598377997
0.02625,-0.0007630166947
0.02627083333,-0.0007692170329
0.02629166667,-0.0007639077958
0.0263125,-0.0007649887702
0.02633333333,-0.0007557300851
0.02635416667,-0.000750622421
0.026375,-0.0007418661844
0.02639583333,-0.0007408641977
0.02641666667,-0.0007408198435
0.0264375,-0.0007518123602
0.02645833333,-0.0007533571916
0.02647916667,-0.0007643270656
0.0265,-0.0007664627046
0.02652083333,-0.0007806218928
0.02654166667,-0.0007968742866
0.0265625,-0.0008206548519
0.02658333333,-0.0008392516756
0.02660416667,-0.0008397824713
0.026625,-0.0008314407314
0.02664583333,-0.0008131188806
0.02666666667,-0.0007978117792
0.0266875,-0.0007931947475
0.02670833333,-0.0007966276607
0.02672916667,-0.0007996991044
0.02675,-0.0007987531135
0.02677083333,-0.000784340431
0.02679166667,-0.0007540295483
0.0268125,-0.0007272652001
0.02683333333,-0.0007121427916
0.02685416667,-0.0007052682922
0.026875,-0.0007133605541
0.02689583333,-0.000711957051
0.02691666667,-0.0007156875799
0.0269375,-0.0007109106518
0.02695833333,-0.0007126061828
0.02697916667,-0.0007263451116
0.027,-0.0007614716887
0.02702083333,-0.0007773789694
0.02704166667,-0.0007567976136
0.0270625,-0.000732660119
0.02708333333,-0.0006817011745
0.02710416667,-0.0006388715701
0.027125,-0.0006053084508
0.02714583333,-0.0005834620679
0.02716666667,-0.0005571713555
0.0271875,-0.0005014528288
0.02720833333,-0.000434574642
0.02722916667,-0.0003603612713
0.02725,-0.0002850823512
0.02727083333,-0.0002365830587
0.02729166667,-0.0002177314309
0.0273125,-0.0002248947421
0.02733333333,-0.0002327317925
0.02735416667,-0.0002318374318
0.027375,-0.0001862829668
0.02739583333,-0.0001171129479
0.02741666667,-2.844635674e-05
0.0274375,3.992114216e-05
0.02745833333,9.301924001e-05
0.02747916667,0.0001163965062
0.0275,0.0001588057639
0.02752083333,0.0002171739325
0.02754166667,0.0003207088739
0.0275625,0.0004308257194
0.02758333333,0.000531668542
0.02760416667,0.0005809346912
0.027625,0.0005914422218
0.02764583333,0.0005926180747
0.02766666667,0.0005862520193
0.0276875,0.0006047810311
0.02770833333,0.0006403398002
0.02772916667,0.0006744318525
0.02775,0.0006960515748
0.02777083333,0.0006825840683
0.02779166667,0.0006341047701
0.0278125,0.000574679987
0.02783333333,0.000553242804
0.02785416667,0.00056251965
0.027875,0.000587127055
0.02789583333,0.0006332817138
0.02791666667,0.0006505757337
0.0279375,0.0006721544778
0.02795833333,0.0007026963285
0.02797916667,0.0007242685533
0.028,0.0007413087878
0.02802083333,0.000815787469
0.02804166667,0.0008811626467
0.0280625,0.0009424181771
0.02808333333,0.000997066265
0.02810416667,0.001032007392
0.028125,0.001074892934
0.02814583333,0.001135866391
0.02816666667,0.001203811145
0.0281875,0.001271466259
0.02820833333,0.001294021145
0.02822916667,0.001266716747
0.02825,0.001195494668
0.02827083333,0.001161410939
0.02829166667,0.001190831885
0.0283125,0.001303803991
0.02833333333,0.001459464314
0.02835416667,0.001597564667
0.028375,0.001717371633
0.02839583333,0.001784786233
0.02841666667,0.00185884512
0.0284375,0.001927957986
0.02845833333,0.002028570045
0.02847916667,0.002161418321
0.0285,0.002291561104
0.02852083333,0.002402719343
0.02854166667,0.002454331378
0.0285625,0.002494114218
0.02858333333,0.002534538275
0.02860416667,0.002594838152
0.028625,0.002697762335
0.02864583333,0.002833181527
0.02866666667,0.002952182898
0.0286875,0.00300494465
0.02870833333,0.002984529361
0.02872916667,0.002887217095
0.02875,0.002772110049
0.02877083333,0.002777065383
0.02879166667,0.002821823815
0.0288125,0.002968459623
0.02883333333,0.003069249215
0.02885416667,0.003099728609
0.028875,0.003007164691
0.02889583333,0.00286160293
0.02891666667,0.002688712673
0.0289375,0.002612457611
0.02895833333,0.002682516351
0.02897916667,0.00274410448
0.029,0.002730474109
0.02902083333,0.002697614487
0.02904166667,0.002564127557
0.0290625,0.002427001018
0.02908333333,0.002276231768
0.02910416667,0.002252782928
0.029125,0.002199839102
0.02914583333,0.002244653646
0.02916666667,0.002248089993
0.0291875,0.002184421755
0.02920833333,0.002098048339
0.02922916667,0.001971691847
0.02925,0.001869719243
0.02927083333,0.001859587501
0.02929166667,0.001979410183
0.0293125,0.002174396534
0.02933333333,0.002341813873
0.02935416667,0.002480375115
0.029375,0.002407385502
0.02939583333,0.002296573948
0.02941666667,0.002202135045
0.0294375,0.002181686228
0.02945833333,0.002295512939
0.02947916667,0.002427657368
0.0295,0.002585204318
0.02952083333,0.002623605542
0.02954166667,0.002609817777
0.0295625,0.002628605813
0.02958333333,0.002892035525
0.02960416667,0.003363169497
0.029625,0.00397086516
0.02964583333,0.004615984857
0.02966666667,0.005184386857
0.0296875,0.005528477952
0.02970833333,0.005817553028
0.02972916667,0.00610944815
0.02975,0.006442985963
0.02977083333,0.006678035017
0.02979166667,0.007167636883
0.0298125,0.007753632963
0.02983333333,0.008662000299
0.02985416667,0.009325990453
0.029875,0.00978872925
0.02989583333,0.009737608954
0.02991666667,0.008992535062
0.0299375,0.008088869043
0.02995833333,0.007988994941
0.02997916667,0.008770307526
0.03,0.02019503154
0.03002083333,0.0210821256
0.03004166667,0.02108712494
0.0300625,0.02026652172
0.03008333333,0.0195942726
0.03010416667,0.0196379777
0.030125,0.02021458
0.03014583333,0.02099621855
0.03016666667,0.02205034904
0.0301875,0.02278817818
0.03020833333,0.02345213294
0.03022916667,0.02387196012
0.03025,0.02440567873
0.03027083333,0.02489499748
0.03029166667,0.02536171488
0.0303125,0.02589014359
0.03033333333,0.02667566761
0.03035416667,0.0275697466
0.030375,0.02846889757
0.03039583333,0.02922578715
0.03041666667,0.02978293225
0.0304375,0.03006673791
0.03045833333,0.0302923806
0.03047916667,0.03056220338
0.0305,0.0309452042
0.03052083333,0.03132454678
0.03054166667,0.03168608621
0.0305625,0.0319452025
0.03058333333,0.03211587667
0.03060416667,0.03226805851
0.030625,0.03243143857
0.03064583333,0.03281350061
0.03066666667,0.03320754319
0.0306875,0.03364676982
0.03070833333,0.03400838375
0.03072916667,0.03420677781
0.03075,0.03429752216
0.03077083333,0.03434208408
0.03079166667,0.03441207111
0.0308125,0.03448290378
0.03083333333,0.03461694717
0.03085416667,0.03481687233
0.030875,0.03489611298
0.03089583333,0.03504057974
0.03091666667,0.03501544893
0.0309375,0.03500249609
0.03095833333,0.03497568518
0.03097916667,0.03503608704
0.031,0.03510662913
0.03102083333,0.03526045755
0.03104166667,0.03543040156
0.0310625,0.03541710973
0.03108333333,0.03528801352
0.03110416667,0.03519111499
0.031125,0.03514021263
0.03114583333,0.03524024785
0.03116666667,0.03539802507
0.0311875,0.03561317548
0.03120833333,0.03569040075
0.03122916667,0.03574050963
0.03125,0.03563735262
0.03127083333,0.03554635122
0.03129166667,0.03556045145
0.0313125,0.03564653918
0.03133333333,0.03579892218
0.03135416667,0.03596066684
0.031375,0.03608288243
0.03139583333,0.03616937622
0.03141666667,0.03624061123
0.0314375,0.03630674258
0.03145833333,0.03637797385
0.03147916667,0.03653304279
0.0315,0.03670102358
0.03152083333,0.03685379773
0.03154166667,0.03695613891
0.0315625,0.03703870252
0.03158333333,0.03714558482
0.03160416667,0.03727578744
0.031625,0.03746558353
0.03164583333,0.03770400584
0.03166666667,0.03795501962
0.0316875,0.03811037168
0.03170833333,0.03812564909
0.03172916667,0.03803570569
0.03175,0.03787457943
0.03177083333,0.03780062869
0.03179166667,0.03780052438
0.0318125,0.03787339106
0.03183333333,0.03793368861
0.03185416667,0.03799850494
0.031875,0.03802413121
0.03189583333,0.03805525973
0.03191666667,0.03813283518
0.0319375,0.03822834045
0.03195833333,0.03834874183
0.03197916667,0.03847656399
0.032,0.03849010915
0.03202083333,0.03853324428
0.03204166667,0.03858028352
0.0320625,0.03861823305
0.03208333333,0.03865000233
0.03210416667,0.03873331845
0.032125,0.03878043592
0.03214583333,0.03880962357
0.03216666667,0.0387868695
0.0321875,0.03868873045
0.03220833333,0.03863580897
0.03222916667,0.03865380958
0.03225,0.03871417046
0.03227083333,0.03878017887
0.03229166667,0.03882074729
0.0323125,0.03882656991
0.03233333333,0.03877399117
0.03235416667,0.03888580948
0.032375,0.03907996044
0.03239583333,0.03941426799
0.03241666667,0.03984682262
0.0324375,0.04019568488
0.03245833333,0.04053916782
0.03247916667,0.04085768759
0.0325,0.04116025195
0.03252083333,0.04144045711
0.03254166667,0.04176308215
0.0325625,0.04210045561
0.03258333333,0.04246811196
0.03260416667,0.04278587922
0.032625,0.04307055846
0.03264583333,0.04325969145
0.03266666667,0.04344525188
0.0326875,0.04364903271
0.03270833333,0.04390291497
0.03272916667,0.04422062263
0.03275,0.0445869267
0.03277083333,0.04495290294
0.03279166667,0.04528701678
0.0328125,0.0456036143
0.03283333333,0.0458727479
0.03285416667,0.04613196105
0.032875,0.04640271142
0.03289583333,0.04668216407
0.03291666667,0.04695853218
0.0329375,0.0471373722
0.03295833333,0.04729884863
0.03297916667,0.04738608748
0.033,0.04741790518
0.03302083333,0.04750910401
0.03304166667,0.047609929
0.0330625,0.04770869389
0.03308333333,0.04775398225
0.03310416667,0.0478172861
0.033125,0.0478496179
0.03314583333,0.04792436212
0.03316666667,0.04803523421
0.0331875,0.04817527533
0.03320833333,0.0482750535
0.03322916667,0.04831073433
0.03325,0.04830117896
0.03327083333,0.04824548215
0.03329166667,0.04818645865
0.0333125,0.04812351987
0.03333333333,0.04807788879
0.03335416667,0.04804212227
0.033375,0.04795981571
0.03339583333,0.04788010567
0.03341666667,0.04768409207
0.0334375,0.04747111723
0.03345833333,0.04724884778
0.03347916667,0.04700105637
0.0335,0.04679783061
0.03352083333,0.04655371979
0.03354166667,0.04631339386
0.0335625,0.04603423178
0.03358333333,0.04578366503
0.03360416667,0.04553148896
0.033625,0.04531224445
0.03364583333,0.04508384317
0.03366666667,0.04484770447
0.0336875,0.04456147924
0.03370833333,0.04426187277
0.03372916667,0.04392976314
0.03375,0.04359679669
0.03377083333,0.04328820109
0.03379166667,0.04299460724
0.0338125,0.04272468016
0.03383333333,0.04248271883
0.03385416667,0.04220627248
0.033875,0.04195049778
0.03389583333,0.04168291017
0.03391666667,0.04139222205
0.0339375,0.04110263661
0.03395833333,0.04083923995
0.03397916667,0.04060074687
0.034,0.04033989459
0.03402083333,0.04010245204
0.03404166667,0.03994068131
0.0340625,0.0397544466
0.03408333333,0.03956947848
0.03410416667,0.03948928416
0.034125,0.03938514739
0.03414583333,0.03930617869
0.03416666667,0.03917977586
0.0341875,0.03905026242
0.03420833333,0.03885211423
0.03422916667,0.03865393251
0.03425,0.03842505813
0.03427083333,0.03820808232
0.03429166667,0.03802634776
0.0343125,0.03787871823
0.03433333333,0.03768773749
0.03435416667,0.03748763353
0.034375,0.03724902496
0.03439583333,0.03705204278
0.03441666667,0.0368838124
0.0344375,0.0366936326
0.03445833333,0.03653739393
0.03447916667,0.03635360673
0.0345,0.03616949171
0.03452083333,0.03597874567
0.03454166667,0.03579074144
0.0345625,0.0356098488
0.03458333333,0.03545941412
0.03460416667,0.03529268876
0.034625,0.03515861556
0.03464583333,0.03500286117
0.03466666667,0.03482014686
0.0346875,0.03462134302
0.03470833333,0.03446953371
0.03472916667,0.03427017108
0.03475,0.03407220542
0.03477083333,0.03386348858
0.03479166667,0.03367942572
0.0348125,0.03349981457
0.03483333333,0.03335116059
0.03485416667,0.03329367191
0.034875,0.03322578967
0.03489583333,0.03320803121
0.03491666667,0.03320284188
0.0349375,0.03322205693
0.03495833333,0.0332647711
0.03497916667,0.03327542543
0.035,0.03318593651
0.03502083333,0.03311367333
0.03504166667,0.03297896683
0.0350625,0.03283584863
0.03508333333,0.03268477321
0.03510416667,0.03252578527
0.035125,0.0323051475
0.03514583333,0.03211454675
0.03516666667,0.03189630061
0.0351875,0.03172357008
0.03520833333,0.03151760623
0.03522916667,0.03138878942
0.03525,0.03124211542
0.03527083333,0.03111868352
0.03529166667,0.03092228249
0.0353125,0.03070891276
0.03533333333,0.03045516834
0.03535416667,0.03021306731
0.035375,0.02999256924
0.03539583333,0.02978479117
0.03541666667,0.02956919931
0.0354375,0.02934769914
0.03545833333,0.02913328633
0.03547916667,0.02888123877
0.0355,0.02859309688
0.03552083333,0.02830563486
0.03554166667,0.0280181542
0.0355625,0.02773893625
0.03558333333,0.02746080421
0.03560416667,0.02718194015
0.035625,0.02689176425
0.03564583333,0.02663034387
0.03566666667,0.02638762444
0.0356875,0.02615486458
0.03570833333,0.02588182315
0.03572916667,0.0256224703
0.03575,0.02531136014
0.03577083333,0.02494598739
0.03579166667,0.02460804954
0.0358125,0.02425700426
0.03583333333,0.02391060255
0.03585416667,0.02356831357
0.035875,0.02322628722
0.03589583333,0.02286580577
0.03591666667,0.02242917381
0.0359375,0.02197550051
0.03595833333,0.02150417864
0.03597916667,0.02103226259
0.036,0.02057107724
0.03602083333,0.02012256719
0.03604166667,0.01967041939
0.0360625,0.01919383928
0.03608333333,0.01871580817
0.03610416667,0.01821350679
0.036125,0.01768177748
0.03614583333,0.01714146882
0.03616666667,0.01656481624
0.0361875,0.01604284905
0.03620833333,0.01549973059
0.03622916667,0.01497695409
0.03625,0.01442750916
0.03627083333,0.01392577682
0.03629166667,0.01337051205
0.0363125,0.01285897754
0.03633333333,0.01232476719
0.03635416667,0.01180044003
0.036375,0.01130286697
0.03639583333,0.01082770806
0.03641666667,0.01028939337
0.0364375,0.009753087536
0.03645833333,0.009205897339
0.03647916667,0.008659357205
0.0365,0.008170630783
0.03652083333,0.007693965919
0.03654166667,0.007222501561
0.0365625,0.006757521071
0.03658333333,0.006331264507
0.03660416667,0.00597299356
0.036625,0.005619168282
0.03664583333,0.005307828542
0.03666666667,0.004949725233
0.0366875,0.004574990831
0.03670833333,0.004205953795
0.03672916667,0.003789334092
0.03675,0.003425530391
0.03677083333,0.00304497336
0.03679166667,0.002632932039
0.0368125,0.002214631299
0.03683333333,0.001764148008
0.03685416667,0.001367185265
0.036875,0.001018207055
0.03689583333,0.0007202747511
0.03691666667,0.0004524628748
0.0369375,0.0001676765387
0.03695833333,-0.0001796972938
0.03697916667,-0.0005364088574
0.037,-0.0009422682342
0.03702083333,-0.001376498025
0.03704166667,-0.001888810773
0.0370625,-0.002419272205
0.03708333333,-0.002980906516
0.03710416667,-0.003495504148
0.037125,-0.004037937149
0.03714583333,-0.004479693249
0.03716666667,-0.004928572569
0.0371875,-0.005390743259
0.03720833333,-0.005882616621
0.03722916667,-0.006377441809
0.03725,-0.006896369625
0.03727083333,-0.007387842983
0.03729166667,-0.007903289981
0.0373125,-0.008393961936
0.03733333333,-0.008880309761
0.03735416667,-0.009454196319
0.037375,-0.01002012193
0.03739583333,-0.01056710072
0.03741666667,-0.01111407392
0.0374375,-0.0116687119
0.03745833333,-0.01226915978
0.03747916667,-0.01290536113
0.0375,-0.01357718278
0.03752083333,-0.01427956298
0.03754166667,-0.01489829179
0.0375625,-0.01547798235
0.03758333333,-0.01604406536
0.03760416667,-0.01658106968
0.037625,-0.01720676012
0.03764583333,-0.01791209914
0.03766666667,-0.01873580553
0.0376875,-0.01962497644
0.03770833333,-0.02053752169
0.03772916667,-0.02143604308
0.03775,-0.02228056639
0.03777083333,-0.02320283093
0.03779166667,-0.02414397709
0.0378125,-0.02509091422
0.03783333333,-0.02611818165
0.03785416667,-0.02710942738
0.037875,-0.02814443596
0.03789583333,-0.02917428315
0.03791666667,-0.03023109399
0.0379375,-0.03131598234
0.03795833333,-0.03247145563
0.03797916667,-0.03365531564
0.038,-0.03488769382
0.03802083333,-0.03610760719
0.03804166667,-0.0372986123
0.0380625,-0.03852806985
0.03808333333,-0.03978186473
0.03810416667,-0.04109144956
0.038125,-0.0423498638
0.03814583333,-0.04359691218
0.03816666667,-0.04480991513
0.0381875,-0.04594475031
0.03820833333,-0.04710905999
0.03822916667,-0.04825387895
0.03825,-0.04941347986
0.03827083333,-0.05056268349
0.03829166667,-0.05177502334
0.0383125,-0.05297224224
0.03833333333,-0.05419066176
0.03835416667,-0.05534622446
0.038375,-0.05648428202
0.03839583333,-0.05761511624
0.03841666667,-0.05876812711
0.0384375,-0.05989966542
0.03845833333,-0.06104603037
0.03847916667,-0.06219533831
0.0385,-0.0633482784
0.03852083333,-0.06450275332
0.03854166667,-0.06563501805
0.0385625,-0.06678412855
0.03858333333,-0.06790335476
0.03860416667,-0.06903775036
0.038625,-0.07009544224
0.03864583333,-0.07107812166
0.03866666667,-0.07208329439
0.0386875,-0.0730868578
0.03870833333,-0.07408910245
0.03872916667,-0.07507324219
0.03875,-0.07602069527
0.03877083333,-0.07694084942
0.03879166667,-0.07786087692
0.0388125,-0.07875552773
0.03883333333,-0.07964159548
0.03885416667,-0.08049657196
0.038875,-0.08138758689
0.03889583333,-0.08228714764
0.03891666667,-0.08318846673
0.0389375,-0.08407823741
0.03895833333,-0.08493247628
0.03897916667,-0.08575792611
0.039,-0.08662095666
0.03902083333,-0.08731361479
0.03904166667,-0.08802606165
0.0390625,-0.08866394311
0.03908333333,-0.08933725208
0.03910416667,-0.08996796608
0.039125,-0.09062999487
0.03914583333,-0.09132498503
0.03916666667,-0.09199614823
0.0391875,-0.09269391745
0.03920833333,-0.09336152673
0.03922916667,-0.09405173361
0.03925,-0.09476107359
0.03927083333,-0.09544903785
0.03929166667,-0.09616286308
0.0393125,-0.0968311727
0.03933333333,-0.0975445509
0.03935416667,-0.09819466621
0.039375,-0.09880217165
0.03939583333,-0.09940977395
0.03941666667,-0.1000004411
0.0394375,-0.1005914584
0.03945833333,-0.1012016386
0.03947916667,-0.1017558426
0.0395,-0.1023386121
0.03952083333,-0.1029447168
0.03954166667,-0.1035276726
0.0395625,-0.104134582
0.03958333333,-0.1046773195
0.03960416667,-0.1051769555
0.039625,-0.1056432277
0.03964583333,-0.1060785949
0.03966666667,-0.1065526828
0.0396875,-0.1070416942
0.03970833333,-0.1075086147
0.03972916667,-0.1079107076
0.03975,-0.1083007678
0.03977083333,-0.1086648777
0.03979166667,-0.1090649441
0.0398125,-0.1094244793
0.03983333333,-0.1097814292
0.03985416667,-0.1101032048
0.039875,-0.1103808358
0.03989583333,-0.1106171682
0.03991666667,-0.1108598113
0.0399375,-0.1111286432
0.03995833333,-0.1114654988
0.03997916667,-0.1117427796
0.04,-0.1121264994
0.04002083333,-0.1124193445
0.04004166667,-0.1126779467
0.0400625,-0.1129788831
0.04008333333,-0.1133050025
0.04010416667,-0.1136357337
0.040125,-0.1139442921
0.04014583333,-0.1141370013
0.04016666667,-0.1143418849
0.0401875,-0.1145542562
0.04020833333,-0.1148675308
0.04022916667,-0.1151343957
0.04025,-0.1153429225
0.04027083333,-0.1155766547
0.04029166667,-0.1158685982
0.0403125,-0.1161321998
0.04033333333,-0.1164257526
0.04035416667,-0.1165962145
0.040375,-0.116707392
0.04039583333,-0.1168113202
0.04041666667,-0.1169988438
0.0404375,-0.1172228679
0.04045833333,-0.1175334677
0.04047916667,-0.1177416891
0.0405,-0.1179395989
0.04052083333,-0.1180936098
0.04054166667,-0.1182302162
0.0405625,-0.1184144244
0.04058333333,-0.1185869947
0.04060416667,-0.1187806576
0.040625,-0.1189705729
0.04064583333,-0.1191201806
0.04066666667,-0.119283691
0.0406875,-0.1194641441
0.04070833333,-0.1196515188
0.04072916667,-0.1197783723
0.04075,-0.1199505925
0.04077083333,-0.1199605241
0.04079166667,-0.1199923381
0.0408125,-0.1199813113
0.04083333333,-0.1199841127
0.04085416667,-0.1199620962
0.040875,-0.1198852956
0.04089583333,-0.1198257804
0.04091666667,-0.1198331043
0.0409375,-0.1198598146
0.04095833333,-0.1198594719
0.04097916667,-0.1198142394
0.041,-0.1197842881
0.04102083333,-0.1197057143
0.04104166667,-0.1196458191
0.0410625,-0.1195273474
0.04108333333,-0.1194048375
0.04110416667,-0.1192049012
0.041125,-0.1189812049
0.04114583333,-0.11870341
0.04116666667,-0.1184680164
0.0411875,-0.1182138324
0.04120833333,-0.1180213243
0.04122916667,-0.1177617162
0.04125,-0.1175896451
0.04127083333,-0.117331937
0.04129166667,-0.1171176955
0.0413125,-0.1168737486
0.04133333333,-0.1166197434
0.04135416667,-0.1163576022
0.041375,-0.1160231158
0.04139583333,-0.1156438142
0.04141666667,-0.115259558
0.0414375,-0.1148722544
0.04145833333,-0.1144268215
0.04147916667,-0.1138984561
0.0415,-0.1133853048
0.04152083333,-0.112879701
0.04154166667,-0.1124729365
0.0415625,-0.1119307429
0.04158333333,-0.111372076
0.04160416667,-0.1107937992
0.041625,-0.1101783663
0.04164583333,-0.1095696166
0.04166666667,-0.1089644656
0.0416875,-0.108332634
0.04170833333,-0.1077345535
0.04172916667,-0.1071210429
0.04175,-0.1065090224
0.04177083333,-0.1059034094
0.04179166667,-0.1053202152
0.0418125,-0.1047611088
0.04183333333,-0.1042367518
0.04185416667,-0.1036670804
0.041875,-0.1031975374
0.04189583333,-0.1026366949
0.04191666667,-0.1020898223
0.0419375,-0.1014869437
0.04195833333,-0.1008893549
0.04197916667,-0.1003312916
0.042,-0.09979511797
0.04202083333,-0.09927265346
0.04204166667,-0.09877542406
0.0420625,-0.0981952399
0.04208333333,-0.09769977629
0.04210416667,-0.09712834656
0.042125,-0.09658265114
0.04214583333,-0.09605638683
0.04216666667,-0.09554244578
0.0421875,-0.09503757209
0.04220833333,-0.09461700171
0.04222916667,-0.09415249527
0.04225,-0.09371555597
0.04227083333,-0.09328857064
0.04229166667,-0.09285836667
0.0423125,-0.09246109426
0.04233333333,-0.09211660177
0.04235416667,-0.09174653888
0.042375,-0.09138547629
0.04239583333,-0.09103812277
0.04241666667,-0.09074731916
0.0424375,-0.09042000026
0.04245833333,-0.09013532847
0.04247916667,-0.08983657509
0.0425,-0.08953566849
0.04252083333,-0.08924339712
0.04254166667,-0.08894990385
0.0425625,-0.08866413683
0.04258333333,-0.08847830445
0.04260416667,-0.0883070007
0.042625,-0.08826622367
0.04264583333,-0.08823926002
0.04266666667,-0.08823144436
0.0426875,-0.08826740086
0.04270833333,-0.08832105249
0.04272916667,-0.08831258118
0.04275,-0.08837052435
0.04277083333,-0.08841139823
0.04279166667,-0.08850770444
0.0428125,-0.08860842884
0.04283333333,-0.08874865621
0.04285416667,-0.08884853125
0.042875,-0.08896456659
0.04289583333,-0.08905886114
0.04291666667,-0.08919038624
0.0429375,-0.08936411887
0.04295833333,-0.08953475952
0.04297916667,-0.0896935612
0.043,-0.0899053961
0.04302083333,-0.08998015523
0.04304166667,-0.09014829248
0.0430625,-0.09021169692
0.04308333333,-0.09027479589
0.04310416667,-0.09033066034
0.043125,-0.09039527923
0.04314583333,-0.09040501714
0.04316666667,-0.09042606503
0.0431875,-0.09039587528
0.04320833333,-0.09039802849
0.04322916667,-0.09029945731
0.04325,-0.09017343819
0.04327083333,-0.09002229571
0.04329166667,-0.08976819366
0.0433125,-0.08950822055
0.04333333333,-0.08921677619
0.04335416667,-0.08889118582
0.043375,-0.08855495602
0.04339583333,-0.08816152066
0.04341666667,-0.08778074384
0.0434375,-0.08735976368
0.04345833333,-0.08688341081
0.04347916667,-0.08631792665
0.0435,-0.08569890261
0.04352083333,-0.08505503833
0.04354166667,-0.08440538496
0.0435625,-0.08367431909
0.04358333333,-0.08299473673
0.04360416667,-0.08222422004
0.043625,-0.08142367005
0.04364583333,-0.08052209765
0.04366666667,-0.07966287434
0.0436875,-0.07876347005
0.04370833333,-0.07788071781
0.04372916667,-0.07698304206
0.04375,-0.07615616173
0.04377083333,-0.07523797452
0.04379166667,-0.07438771427
0.0438125,-0.07352769375
0.04383333333,-0.07264973223
0.04385416667,-0.07178466022
0.043875,-0.07089965791
0.04389583333,-0.07002017647
0.04391666667,-0.06915327907
0.0439375,-0.06822761148
0.04395833333,-0.06741540879
0.04397916667,-0.06661168486
0.044,-0.06576608121
0.04402083333,-0.0649344027
0.04404166667,-0.06407414377
0.0440625,-0.06315597147
0.04408333333,-0.06232757494
0.04410416667,-0.06149056926
0.044125,-0.0607483238
0.04414583333,-0.05994319543
0.04416666667,-0.05919217318
0.0441875,-0.05848519132
0.04420833333,-0.05780663341
0.04422916667,-0.05708364025
0.04425,-0.05641159415
0.04427083333,-0.05576159805
0.04429166667,-0.05512252823
0.0443125,-0.05453037843
0.04433333333,-0.05400266126
0.04435416667,-0.05349189416
0.044375,-0.05299004167
0.04439583333,-0.05244301632
0.04441666667,-0.05191943794
0.0444375,-0.05144480616
0.04445833333,-0.0509746857
0.04447916667,-0.05048972741
0.0445,-0.05011137947
0.04452083333,-0.04967859387
0.04454166667,-0.04937553778
0.0445625,-0.04892331734
0.04458333333,-0.0485335663
0.04460416667,-0.04817696288
0.044625,-0.04779908806
0.04464583333,-0.04740703851
0.04466666667,-0.04709490016
0.0446875,-0.04686416686
0.04470833333,-0.0466277115
0.04472916667,-0.04633273929
0.04475,-0.04609048739
0.04477083333,-0.04579750448
0.04479166667,-0.04551888257
0.0448125,-0.04520808533
0.04483333333,-0.04486849904
0.04485416667,-0.04447420314
0.044875,-0.04412130266
0.04489583333,-0.04369381443
0.04491666667,-0.04331342876
0.0449375,-0.04295767099
0.04495833333,-0.04268659279
0.04497916667,-0.04239415005
0.045,-0.04214690998
0.04502083333,-0.04178801551
0.04504166667,-0.04138237238
0.0450625,-0.04088321701
0.04508333333,-0.0403810218
0.04510416667,-0.03991078958
0.045125,-0.03942576051
0.04514583333,-0.03894406185
0.04516666667,-0.03844984621
0.0451875,-0.0379392989
0.04520833333,-0.03748708218
0.04522916667,-0.03697593883
0.04525,-0.03651458398
0.04527083333,-0.03601511568
0.04529166667,-0.03563394397
0.0453125,-0.03519769013
0.04533333333,-0.03481566533
0.04535416667,-0.03436933085
0.045375,-0.03394541144
0.04539583333,-0.03349523246
0.04541666667,-0.03301102668
0.0454375,-0.03260443732
0.04545833333,-0.03222605959
0.04547916667,-0.03185287118
0.0455,-0.03154762089
0.04552083333,-0.03117811866
0.04554166667,-0.03082717769
0.0455625,-0.03048412316
0.04558333333,-0.03016943485
0.04560416667,-0.02983738296
0.045625,-0.02957003936
0.04564583333,-0.02918948606
0.04566666667,-0.02883972228
0.0456875,-0.02843330055
0.04570833333,-0.02810785174
0.04572916667,-0.02769920975
0.04575,-0.02731604502
0.04577083333,-0.02685388364
0.04579166667,-0.02634589747
0.0458125,-0.02584196255
0.04583333333,-0.02530225553
0.04585416667,-0.02469931357
0.045875,-0.0240838211
0.04589583333,-0.02340044454
0.04591666667,-0.02273214981
0.0459375,-0.02201806009
0.04595833333,-0.02131174877
0.04597916667,-0.02048303746
0.046,-0.01966722123
0.04602083333,-0.01883196458
0.04604166667,-0.01802611537
0.0460625,-0.0171851702
0.04608333333,-0.01638116129
0.04610416667,-0.01547979657
0.046125,-0.01463544928
0.04614583333,-0.01373784617
0.04616666667,-0.01284574065
0.0461875,-0.01195624378
0.04620833333,-0.01109213103
0.04622916667,-0.01022776682
0.04625,-0.009371497668
0.04627083333,-0.008477394469
0.04629166667,-0.007606443483
0.0463125,-0.006647482514
0.04633333333,-0.005729765631
0.04635416667,-0.004761103541
0.046375,-0.003854827024
0.04639583333,-0.002913364442
0.04641666667,-0.002064605244
0.0464375,-0.001236883807
0.04645833333,-0.0005426817806
0.04647916667,0.000196195906
0.0465,0.000854947255
0.04652083333,0.001565638697
0.04654166667,0.002248334233
0.0465625,0.002964928281
0.04658333333,0.003646069672
0.04660416667,0.004310660996
0.046625,0.00488693919
0.04664583333,0.005474334583
0.04666666667,0.006035754923
0.0466875,0.006572945509
0.04670833333,0.006979619153
0.04672916667,0.00746357115
0.04675,0.007944801822
0.04677083333,0.008391434327
0.04679166667,0.008764948696
0.0468125,0.009109116159
0.04683333333,0.009409709834
0.04685416667,0.009732696228
0.046875,0.01003548503
0.04689583333,0.01037066337
0.04691666667,0.01071683131
0.0469375,0.01108119264
0.04695833333,0.0114547424
0.04697916667,0.01177343447
0.047,0.01209386159
0.04702083333,0.01247829851
0.04704166667,0.01276527438
0.0470625,0.01319455635
0.04708333333,0.01352714095
0.04710416667,0.0138819702
0.047125,0.01419935096
0.04714583333,0.01458918303
0.04716666667,0.01491593104
0.0471875,0.01532482449
0.04720833333,0.01565499417
0.04722916667,0.01602835022
0.04725,0.01636344194
0.04727083333,0.01672777161
0.04729166667,0.01709211245
0.0473125,0.01748313941
0.04733333333,0.0178729035
0.04735416667,0.01827616245
0.047375,0.01873094589
0.04739583333,0.01927151158
0.04741666667,0.01979241893
0.0474375,0.02039259858
0.04745833333,0.02098122798
0.04747916667,0.02157457545
0.0475,0.02211799286
0.04752083333,0.02273278125
0.04754166667,0.02327211946
0.0475625,0.02392384969
0.04758333333,0.0245310422
0.04760416667,0.02515399642
0.047625,0.02588658035
0.04764583333,0.02661677264
0.04766666667,0.02740599401
0.0476875,0.0282385163
0.04770833333,0.02905970067
0.04772916667,0.02998928539
0.04775,0.03088636696
0.04777083333,0.03186443076
0.04779166667,0.03284785524
0.0478125,0.03391815722
0.04783333333,0.03497320786
0.04785416667,0.03606851026
0.047875,0.03712955862
0.04789583333,0.0383358635
0.04791666667,0.03949948028
0.0479375,0.04074270278
0.04795833333,0.04192486405
0.04797916667,0.04319613799
0.048,0.04439661279
0.04802083333,0.04562212154
0.04804166667,0.04677446932
0.0480625,0.0479218699
0.04808333333,0.04903684929
0.04810416667,0.05015791953
0.048125,0.05129478127
0.04814583333,0.05242652074
0.04816666667,0.05360793322
0.0481875,0.0548270084
0.04820833333,0.05600007996
0.04822916667,0.05713532865
0.04825,0.05820896477
0.04827083333,0.05930224806
0.04829166667,0.06034920365
0.0483125,0.06142418087
0.04833333333,0.06245895848
0.04835416667,0.06356865168
0.048375,0.06460978836
0.04839583333,0.06569505483
0.04841666667,0.06666465849
0.0484375,0.06765084714
0.04845833333,0.0685781762
0.04847916667,0.06953991205
0.0485,0.07044424862
0.04852083333,0.07138424367
0.04854166667,0.07233762741
0.0485625,0.0732826665
0.04858333333,0.07416185737
0.04860416667,0.0750388056
0.048625,0.07587976009
0.04864583333,0.07677939534
0.04866666667,0.07765393704
0.0486875,0.07858034968
0.04870833333,0.07949545234
0.04872916667,0.08037942648
0.04875,0.0812555626
0.04877083333,0.08209203184
0.04879166667,0.08286716044
0.0488125,0.08364851773
0.04883333333,0.08434096724
0.04885416667,0.08512696624
0.048875,0.08580863476
0.04889583333,0.08655454963
0.04891666667,0.08725380898
0.0489375,0.08798906952
0.04895833333,0.0885822922
0.04897916667,0.08913362771
0.049,0.08966267109
0.04902083333,0.09028623998
0.04904166667,0.09082707018
0.0490625,0.09143360704
0.04908333333,0.09203830361
0.04910416667,0.09266573936
0.049125,0.09331595898
0.04914583333,0.09392443299
0.04916666667,0.09445604682
0.0491875,0.09503934532
0.04920833333,0.09556340426
0.04922916667,0.09609237313
0.04925,0.09658449888
0.04927083333,0.09708248079
0.04929166667,0.0975779742
0.0493125,0.09812262654
0.04933333333,0.09858198464
0.04935416667,0.09912015498
0.049375,0.09962801635
0.04939583333,0.1001439989
0.04941666667,0.1006018445
0.0494375,0.1010425761
0.04945833333,0.1014674753
0.04947916667,0.1019129753
0.0495,0.1022740602
0.04952083333,0.1027266234
0.04954166667,0.1031353176
0.0495625,0.1036341265
0.04958333333,0.1040178016
0.04960416667,0.1044066176
0.049625,0.104788363
0.04964583333,0.105164893
0.04966666667,0.1056079566
0.0496875,0.1060118154
0.04970833333,0.106430985
0.04972916667,0.1068504304
0.04975,0.107262969
0.04977083333,0.1077307984
0.04979166667,0.1081590503
0.0498125,0.1086252108
0.04983333333,0.1090581864
0.04985416667,0.1095273942
0.049875,0.1100304574
0.04989583333,0.1105508655
0.04991666667,0.1109750122
0.0499375,0.1114520207
0.04995833333,0.111797139
0.04997916667,0.112202771
0.05,0.1126237363
0.05002083333,0.1130398363
0.05004166667,0.1137419194
0.0500625,0.1144156829
0.05008333333,0.1150120571
0.05010416667,0.115604043
0.050125,0.1160668135
0.05014583333,0.1166297048
0.05016666667,0.1172158718
0.0501875,0.1177732199
0.05020833333,0.1183070168
0.05022916667,0.1188682541
0.05025,0.1193054393
0.05027083333,0.1197750941
0.05029166667,0.1201070696
0.0503125,0.1204149723
0.05033333333,0.120658502
0.05035416667,0.1209221259
0.050375,0.1212534755
0.05039583333,0.1215853989
0.05041666667,0.1218751818
0.0504375,0.122166045
0.05045833333,0.1223925501
0.05047916667,0.1226434261
0.0505,0.1227999106
0.05052083333,0.1229537055
0.05054166667,0.1230645031
0.0505625,0.1232478917
0.05058333333,0.1233756542
0.05060416667,0.1235392392
0.050625,0.1236687601
0.05064583333,0.1237771586
0.05066666667,0.1238360107
0.0506875,0.1238609105
0.05070833333,0.1238382682
0.05072916667,0.1238515526
0.05075,0.123857148
0.05077083333,0.1238480881
0.05079166667,0.1238373145
0.0508125,0.1238486171
0.05083333333,0.1238704845
0.05085416667,0.1239355356
0.050875,0.1239204183
0.05089583333,0.1239282265
0.05091666667,0.1237899587
0.0509375,0.1237541661
0.05095833333,0.1236308068
0.05097916667,0.1236130893
0.051,0.12349011
0.05102083333,0.1234108582
0.05104166667,0.1233109012
0.0510625,0.1231608987
0.05108333333,0.1229731143
0.05110416667,0.1227344722
0.051125,0.1224756241
0.05114583333,0.1221628562
0.05116666667,0.1217795983
0.0511875,0.1215184778
0.05120833333,0.1215108112
0.05122916667,0.1215506122
0.05125,0.1214563176
0.05127083333,0.1213604137
0.05129166667,0.1210976988
0.0513125,0.1209244877
0.05133333333,0.1205675304
0.05135416667,0.1202260554
0.051375,0.1198649332
0.05139583333,0.1195635647
0.05141666667,0.1192523241
0.0514375,0.1188943908
0.05145833333,0.1185697615
0.05147916667,0.1181716993
0.0515,0.1177742407
0.05152083333,0.1174033508
0.05154166667,0.1168940291
0.0515625,0.1164678559
0.05158333333,0.1160293519
0.05160416667,0.1155845746
0.051625,0.1151281595
0.05164583333,0.1146596968
0.05166666667,0.1141277552
0.0516875,0.1136333048
0.05170833333,0.1130378991
0.05172916667,0.1125117019
0.05175,0.1119468138
0.05177083333,0.1113126725
0.05179166667,0.1107421219
0.0518125,0.110138014
0.05183333333,0.1094731763
0.05185416667,0.1088569462
0.051875,0.108161889
0.05189583333,0.1075363308
0.05191666667,0.1068916023
0.0519375,0.1062710509
0.05195833333,0.1055824757
0.05197916667,0.1049317047
0.052,0.1042084917
0.05202083333,0.1035175547
0.05204166667,0.1028162017
0.0520625,0.1021621302
0.05208333333,0.1014634371
0.05210416667,0.1008136943
0.052125,0.1001540348
0.05214583333,0.09952630848
0.05216666667,0.09894092381
0.0521875,0.09842678905
0.05220833333,0.09785475582
0.05222916667,0.09731849283
0.05225,0.09679368883
0.05227083333,0.09628143162
0.05229166667,0.09583437443
0.0523125,0.09539005905
0.05233333333,0.0949787572
0.05235416667,0.09462510049
0.052375,0.09427364171
0.05239583333,0.09397358447
0.05241666667,0.09367106855
0.0524375,0.09340889752
0.05245833333,0.09317719191
0.05247916667,0.09295619279
0.0525,0.09268746525
0.05252083333,0.09251654893
0.05254166667,0.09247719496
0.0525625,0.09258970618
0.05258333333,0.09281651676
0.05260416667,0.0930306986
0.052625,0.09334284067
0.05264583333,0.09385149181
0.05266666667,0.09420090169
0.0526875,0.09443327039
0.05270833333,0.0946437493
0.05272916667,0.0949562788
0.05275,0.09553916007
0.05277083333,0.09612105787
0.05279166667,0.09654632956
0.0528125,0.0969639644
0.05283333333,0.09734705836
0.05285416667,0.09772796184
0.052875,0.09805236012
0.05289583333,0.09831726551
0.05291666667,0.09849082679
0.0529375,0.09873309731
0.05295833333,0.09898804873
0.05297916667,0.09920942783
0.053,0.09934176505
0.05302083333,0.09947238863
0.05304166667,0.09949488193
0.0530625,0.09949537367
0.05308333333,0.09949441999
0.05310416667,0.09941863269
0.053125,0.09932867438
0.05314583333,0.09925790131
0.05316666667,0.09914968908
0.0531875,0.09911315143
0.05320833333,0.09898226708
0.05322916667,0.0987676084
0.05325,0.09855340421
0.05327083333,0.09826801717
0.05329166667,0.09798015654
0.0533125,0.09766612202
0.05333333333,0.09728129953
0.05335416667,0.09688591212
0.053375,0.09650555253
0.05339583333,0.095984824
0.05341666667,0.0954188332
0.0534375,0.09478095174
0.05345833333,0.09408708662
0.05347916667,0.09337334335
0.0535,0.09256997705
0.05352083333,0.09180387855
0.05354166667,0.09108934551
0.0535625,0.09033553302
0.05358333333,0.08953557163
0.05360416667,0.08872255683
0.053625,0.08787887543
0.05364583333,0.08698745072
0.05366666667,0.08606532961
0.0536875,0.08520483971
0.05370833333,0.08431061357
0.05372916667,0.08339259773
0.05375,0.0825298056
0.05377083333,0.08161716908
0.05379166667,0.08077182621
0.0538125,0.07991103828
0.05383333333,0.07897534221
0.05385416667,0.07807542384
0.053875,0.07708407938
0.05389583333,0.0761783421
0.05391666667,0.07522033155
0.0539375,0.07433396578
0.05395833333,0.07345812023
0.05397916667,0.07257771492
0.054,0.07162866741
0.05402083333,0.07079739124
0.05404166667,0.069926247
0.0540625,0.06913986057
0.05408333333,0.06839077175
0.05410416667,0.06749197841
0.054125,0.06675475091
0.05414583333,0.06597883254
0.05416666667,0.06531370431
0.0541875,0.06460569799
0.05420833333,0.06389384717
0.05422916667,0.06316656619
0.05425,0.06246616319
0.05427083333,0.06178696454
0.05429166667,0.06107217073
0.0543125,0.06033872068
0.05433333333,0.05955108628
0.05435416667,0.05886663124
0.054375,0.05821161345
0.05439583333,0.05754779279
0.05441666667,0.05691839755
0.0544375,0.05627694353
0.05445833333,0.05573710799
0.05447916667,0.05513404682
0.0545,0.05455612019
0.05452083333,0.05404549837
0.05454166667,0.05352690071
0.0545625,0.05311126262
0.05458333333,0.05268554762
0.05460416667,0.05226000026
0.054625,0.0519342497
0.05464583333,0.05169219524
0.05466666667,0.05141976848
0.0546875,0.05123534799
0.05470833333,0.05099900439
0.05472916667,0.05073923618
0.05475,0.05055046454
0.05477083333,0.05028149113
0.05479166667,0.05003996193
0.0548125,0.04977291077
0.05483333333,0.04947276786
0.05485416667,0.04916913062
0.054875,0.04883376136
0.05489583333,0.04847608134
0.05491666667,0.04812065512
0.0549375,0.04779729992
0.05495833333,0.04741735756
0.05497916667,0.04700589925
0.055,0.04654845595
0.05502083333,0.04608888179
0.05504166667,0.0455647409
0.0550625,0.04506294802
0.05508333333,0.04450336844
0.05510416667,0.04399136081
0.055125,0.04344416037
0.05514583333,0.04288057983
0.05516666667,0.04236287251
0.0551875,0.04181142151
0.05520833333,0.04126572981
0.05522916667,0.04064269364
0.05525,0.04009981826
0.05527083333,0.0395395197
0.05529166667,0.03901993856
0.0553125,0.03849899396
0.05533333333,0.03802505136
0.05535416667,0.03754389659
0.055375,0.03708946705
0.05539583333,0.03672236949
0.05541666667,0.03635146841
0.0554375,0.0359932296
0.05545833333,0.03563066199
0.05547916667,0.03532318026
0.0555,0.03508579358
0.05552083333,0.03481844068
0.05554166667,0.03451976553
0.0555625,0.03422210738
0.05558333333,0.03393802047
0.05560416667,0.03375516459
0.055625,0.03357768804
0.05564583333,0.03335238621
0.05566666667,0.0332133323
0.0556875,0.03300647438
0.05570833333,0.03272441775
0.05572916667,0.03251444921
0.05575,0.03224548325
0.05577083333,0.03193669394
0.05579166667,0.03156325966
0.0558125,0.03113673627
0.05583333333,0.03074852191
0.05585416667,0.03029831871
0.055875,0.02977660112
0.05589583333,0.02919910662
0.05591666667,0.02857179567
0.0559375,0.02787269093
0.05595833333,0.02705303207
0.05597916667,0.02623153478
0.056,0.02536644228
0.05602083333,0.02446290851
0.05604166667,0.02355646156
0.0560625,0.02263416722
0.05608333333,0.0217494946
0.05610416667,0.02085627429
0.056125,0.01994821429
0.05614583333,0.01890045032
0.05616666667,0.01786406152
0.0561875,0.01683374308
0.05620833333,0.01582199894
0.05622916667,0.0147974398
0.05625,0.01369041856
0.05627083333,0.01259257924
0.05629166667,0.01155611686
0.0563125,0.01052427106
0.05633333333,0.009489122778
0.05635416667,0.008473161608
0.056375,0.007411918137
0.05639583333,0.006413132884
0.05641666667,0.005399347749
0.0564375,0.004512332845
0.05645833333,0.003575500799
0.05647916667,0.002726701554
0.0565,0.001959409565
0.05652083333,0.001175379381
0.05654166667,0.0004182014964
0.0565625,-0.0002668661764
0.05658333333,-0.0009831610369
0.05660416667,-0.001593906898
0.056625,-0.002264525043
0.05664583333,-0.002887308598
0.05666666667,-0.003404586576
0.0566875,-0.003827292472
0.05670833333,-0.00423044851
0.05672916667,-0.004705183208
0.05675,-0.005110786762
0.05677083333,-0.005527978763
0.05679166667,-0.005985454191
0.0568125,-0.006358483341
0.05683333333,-0.006774328183
0.05685416667,-0.007040624972
0.056875,-0.007274515461
0.05689583333,-0.007560250349
0.05691666667,-0.007947383448
0.0569375,-0.008271793835
0.05695833333,-0.008689340204
0.05697916667,-0.009214065969
0.057,-0.009750615805
0.05702083333,-0.01026074681
0.05704166667,-0.01083039399
0.0570625,-0.01150751021
0.05708333333,-0.01210030727
0.05710416667,-0.01272003818
0.057125,-0.01338250004
0.05714583333,-0.01394251827
0.05716666667,-0.01459079608
0.0571875,-0.01535649411
0.05720833333,-0.01609894261
0.05722916667,-0.01691781916
0.05725,-0.01763857529
0.05727083333,-0.0184455663
0.05729166667,-0.01932858117
0.0573125,-0.02004351839
0.05733333333,-0.02085677721
0.05735416667,-0.02153602242
0.057375,-0.02224134468
0.05739583333,-0.02298646979
0.05741666667,-0.02370035276
0.0574375,-0.02448317967
0.05745833333,-0.02524397895
0.05747916667,-0.0260826461
0.0575,-0.0268179737
0.05752083333,-0.02765674517
0.05754166667,-0.02850385942
0.0575625,-0.02936853468
0.05758333333,-0.03015008941
0.05760416667,-0.03083240241
0.057625,-0.03160697594
0.05764583333,-0.03235207498
0.05766666667,-0.03306720406
0.0576875,-0.03397714719
0.05770833333,-0.03486550972
0.05772916667,-0.03580026329
0.05775,-0.03685307875
0.05777083333,-0.03789393976
0.05779166667,-0.03906320408
0.0578125,-0.04020718113
0.05783333333,-0.04143887758
0.05785416667,-0.04272618517
0.057875,-0.0440905951
0.05789583333,-0.04543652758
0.05791666667,-0.04676984251
0.0579375,-0.04822875187
0.05795833333,-0.04969316721
0.05797916667,-0.05123608559
0.058,-0.05277402326
0.05802083333,-0.05440387875
0.05804166667,-0.05608852208
0.0580625,-0.05767188221
0.05808333333,-0.05931480974
0.05810416667,-0.06099867821
0.058125,-0.06259756535
0.05814583333,-0.06420108676
0.05816666667,-0.06582801789
0.0581875,-0.06739751995
0.05820833333,-0.06895793229
0.05822916667,-0.07045926899
0.05825,-0.07196172327
0.05827083333,-0.0733775571
0.05829166667,-0.07476508617
0.0583125,-0.07617741078
0.05833333333,-0.07757641375
0.05835416667,-0.07904569805
0.058375,-0.08053403348
0.05839583333,-0.0820408538
0.05841666667,-0.08347444981
0.0584375,-0.08490338922
0.05845833333,-0.08637813479
0.05847916667,-0.0878251791
0.0585,-0.08926060796
0.05852083333,-0.09064313769
0.05854166667,-0.09203183651
0.0585625,-0.09329926968
0.05858333333,-0.09456327558
0.05860416667,-0.09588688612
0.058625,-0.09710484743
0.05864583333,-0.09838271141
0.05866666667,-0.09953700751
0.0586875,-0.1007620469
0.05870833333,-0.1019335836
0.05872916667,-0.1030239686
0.05875,-0.104132019
0.05877083333,-0.1051659137
0.05879166667,-0.1061533391
0.0588125,-0.1071088985
0.05883333333,-0.1080021188
0.05885416667,-0.1087897867
0.058875,-0.1096061841
0.05889583333,-0.1105446741
0.05891666667,-0.1114064679
0.0589375,-0.1123193651
0.05895833333,-0.1131481528
0.05897916667,-0.1139789745
0.059,-0.1148494408
0.05902083333,-0.1156509668
0.05904166667,-0.1164011508
0.0590625,-0.117226027
0.05908333333,-0.1180882007
0.05910416667,-0.118947804
0.059125,-0.119840838
0.05914583333,-0.1207082048
0.05916666667,-0.121576041
0.0591875,-0.122501269
0.05920833333,-0.1234026998
0.05922916667,-0.1242754459
0.05925,-0.125187248
0.05927083333,-0.1260371953
0.05929166667,-0.1268249601
0.0593125,-0.1276097298
0.05933333333,-0.1283443421
0.05935416667,-0.1290396005
0.059375,-0.1297853589
0.05939583333,-0.1305931509
0.05941666667,-0.1313377917
0.0594375,-0.1321058571
0.05945833333,-0.1328673363
0.05947916667,-0.1334990114
0.0595,-0.1341286302
0.05952083333,-0.1347358227
0.05954166667,-0.1353643835
0.0595625,-0.1358523965
0.05958333333,-0.1362758279
0.05960416667,-0.1365579367
0.059625,-0.1368380785
0.05964583333,-0.1370689273
0.05966666667,-0.1372484714
0.0596875,-0.1373990625
0.05970833333,-0.1374114752
0.05972916667,-0.1374580711
0.05975,-0.1374216229
0.05977083333,-0.1374701113
0.05979166667,-0.1376618594
0.0598125,-0.137724936
0.05983333333,-0.1379548758
0.05985416667,-0.1381517351
0.059875,-0.1383737028
0.05989583333,-0.1385772675
0.05991666667,-0.1389019489
0.0599375,-0.1392326653
0.05995833333,-0.139528662
0.05997916667,-0.1398982704
0.06,-0.1403450519
0.06002083333,-0.1407656074
0.06004166667,-0.141088739
0.0600625,-0.1413595974
0.06008333333,-0.1417276114
0.06010416667,-0.1420396715
0.060125,-0.1424801052
0.06014583333,-0.1428302079
0.06016666667,-0.1432455629
0.0601875,-0.1435942501
0.06020833333,-0.1439709663
0.06022916667,-0.144387573
0.06025,-0.1448043883
0.06027083333,-0.1452634931
0.06029166667,-0.145650059
0.0603125,-0.146058023
0.06033333333,-0.1463692188
0.06035416667,-0.146683231
0.060375,-0.1469442844
0.06039583333,-0.1472461969
0.06041666667,-0.1475499123
0.0604375,-0.1477873176
0.06045833333,-0.1480919868
0.06047916667,-0.1483122408
0.0605,-0.1485038549
0.06052083333,-0.1486457884
0.06054166667,-0.1487425268
0.0605625,-0.148688823
0.06058333333,-0.1485953033
0.06060416667,-0.1485851854
0.060625,-0.1485184282
0.06064583333,-0.1484623849
0.06066666667,-0.14844504
0.0606875,-0.1484648734
0.06070833333,-0.1481682658
0.06072916667,-0.147879824
0.06075,-0.1474899799
0.06077083333,-0.1469839066
0.06079166667,-0.1465443373
0.0608125,-0.1459902078
0.06083333333,-0.1453920454
0.06085416667,-0.1447882652
0.060875,-0.1443479508
0.06089583333,-0.1438823044
0.06091666667,-0.143523708
0.0609375,-0.1430784464
0.06095833333,-0.1424401104
0.06097916667,-0.141822502
0.061,-0.141278252
0.06102083333,-0.1407708824
0.06104166667,-0.1402733177
0.0610625,-0.1397722363
0.06108333333,-0.1392644197
0.06110416667,-0.1387701333
0.061125,-0.138353765
0.06114583333,-0.1379459649
0.06116666667,-0.1375563443
0.0611875,-0.1371547729
0.06120833333,-0.1367285997
0.06122916667,-0.1363133043
0.06125,-0.1358577907
0.06127083333,-0.1355058104
0.06129166667,-0.1351901293
0.0613125,-0.1348465234
0.06133333333,-0.1344796568
0.06135416667,-0.1341198981
0.061375,-0.1337198764
0.06139583333,-0.1332561821
0.06141666667,-0.1327958852
0.0614375,-0.1323999763
0.06145833333,-0.131921947
0.06147916667,-0.1314593107
0.0615,-0.1309505254
0.06152083333,-0.1304583251
0.06154166667,-0.1299854219
0.0615625,-0.1294272393
0.06158333333,-0.1288829148
0.06160416667,-0.1283150464
0.061625,-0.1277419329
0.06164583333,-0.1272291094
0.06166666667,-0.1266455352
0.0616875,-0.1260268241
0.06170833333,-0.1253915131
0.06172916667,-0.1247218251
0.06175,-0.1241981834
0.06177083333,-0.1236334592
0.06179166667,-0.1229798272
0.0618125,-0.122445479
0.06183333333,-0.1218460798
0.06185416667,-0.1212239787
0.061875,-0.1206156611
0.06189583333,-0.1200180575
0.06191666667,-0.1193926036
0.0619375,-0.1187511608
0.06195833333,-0.1178914979
0.06197916667,-0.1171223894
0.062,-0.1165611222
0.06202083333,-0.1155401468
0.06204166667,-0.114189893
0.0620625,-0.1125848368
0.06208333333,-0.1108215302
0.06210416667,-0.1093185693
0.062125,-0.1078199297
0.06214583333,-0.1065155789
0.06216666667,-0.1053146273
0.0621875,-0.1041953191
0.06220833333,-0.1031363234
0.06222916667,-0.1021688282
0.06225,-0.1012710854
0.06227083333,-0.1004303396
0.06229166667,-0.09973818809
0.0623125,-0.09900345653
0.06233333333,-0.0983562544
0.06235416667,-0.09777499735
0.062375,-0.09717535973
0.06239583333,-0.09670551121
0.06241666667,-0.09626609087
0.0624375,-0.0958475247
0.06245833333,-0.09533379227
0.06247916667,-0.09481800348
0.0625,-0.09435223043
0.06252083333,-0.09389811754
0.06254166667,-0.09353542328
0.0625625,-0.09323287755
0.06258333333,-0.09301915765
0.06260416667,-0.0928742066
0.062625,-0.09288158268
0.06264583333,-0.0929151997
0.06266666667,-0.09293860197
0.0626875,-0.09301257133
0.06270833333,-0.09312409163
0.06272916667,-0.09325181693
0.06275,-0.09327223152
0.06277083333,-0.0933393836
0.06279166667,-0.09322562069
0.0628125,-0.09300962836
0.06283333333,-0.09293762594
0.06285416667,-0.09272897243
0.062875,-0.0926861614
0.06289583333,-0.0926984176
0.06291666667,-0.09265215695
0.0629375,-0.09264717251
0.06295833333,-0.09261055291
0.06297916667,-0.09251368791
0.063,-0.09238959104
0.06302083333,-0.09235095233
0.06304166667,-0.09231127799
0.0630625,-0.0923325792
0.06308333333,-0.09231119603
0.06310416667,-0.09234952927
0.063125,-0.0924449116
0.06314583333,-0.09240614623
0.06316666667,-0.09247028083
0.0631875,-0.09258820862
0.06320833333,-0.09281352907
0.06322916667,-0.09305377305
0.06325,-0.09316588938
0.06327083333,-0.0933540538
0.06329166667,-0.0934433639
0.0633125,-0.09349464625
0.06333333333,-0.09349431843
0.06335416667,-0.09342768788
0.063375,-0.09328798205
0.06339583333,-0.093158409
0.06341666667,-0.09298076481
0.0634375,-0.09257765114
0.06345833333,-0.09218201041
0.06347916667,-0.09174492955
0.0635,-0.09121971577
0.06352083333,-0.0906271562
0.06354166667,-0.08998314291
0.0635625,-0.08932892978
0.06358333333,-0.0887176618
0.06360416667,-0.08801664412
0.063625,-0.08732832223
0.06364583333,-0.08667411655
0.06366666667,-0.08599545062
0.0636875,-0.08520717919
0.06370833333,-0.08454094827
0.06372916667,-0.08381917328
0.06375,-0.08303782344
0.06377083333,-0.08243136853
0.06379166667,-0.08165070415
0.0638125,-0.08082497865
0.06383333333,-0.08004295081
0.06385416667,-0.07907793671
0.063875,-0.0781365931
0.06389583333,-0.07724495232
0.06391666667,-0.07632437348
0.0639375,-0.07538994402
0.06395833333,-0.07450310886
0.06397916667,-0.07366259396
0.064,-0.07273794711
0.06402083333,-0.07189291716
0.06404166667,-0.07111840695
0.0640625,-0.0703465566
0.06408333333,-0.06959024072
0.06410416667,-0.0687565431
0.064125,-0.06797522306
0.06414583333,-0.06723429263
0.06416666667,-0.06640040874
0.0641875,-0.06562404335
0.06420833333,-0.06484717131
0.06422916667,-0.06401537359
0.06425,-0.06318280101
0.06427083333,-0.06236662716
0.06429166667,-0.0615032278
0.0643125,-0.06076105684
0.06433333333,-0.06004782766
0.06435416667,-0.0593588464
0.064375,-0.05875121802
0.06439583333,-0.05816330761
0.06441666667,-0.05758761987
0.0644375,-0.05713312328
0.06445833333,-0.05668176338
0.06447916667,-0.05621501431
0.0645,-0.05571020767
0.06452083333,-0.0552662313
0.06454166667,-0.0548700653
0.0645625,-0.05446399003
0.06458333333,-0.05411923677
0.06460416667,-0.05383569002
0.064625,-0.05355439335
0.06464583333,-0.05329537764
0.06466666667,-0.05307389796
0.0646875,-0.05284066871
0.06470833333,-0.05267288536
0.06472916667,-0.05257270113
0.06475,-0.05247378722
0.06477083333,-0.05235490948
0.06479166667,-0.05217223242
0.0648125,-0.05199543387
0.06483333333,-0.05181574821
0.06485416667,-0.05159463361
0.064875,-0.05131276324
0.06489583333,-0.05096885562
0.06491666667,-0.05070189014
0.0649375,-0.05041651055
0.06495833333,-0.05010755733
0.06497916667,-0.04981292784
0.065,-0.04949306697
0.06502083333,-0.04914527759
0.06504166667,-0.04869615287
0.0650625,-0.04822491109
0.06508333333,-0.047766909
0.06510416667,-0.04721651226
0.065125,-0.04658531025
0.06514583333,-0.0459872596
0.06516666667,-0.04533295706
0.0651875,-0.04460409656
0.06520833333,-0.04398134723
0.06522916667,-0.04326291382
0.06525,-0.04254294187
0.06527083333,-0.04186427966
0.06529166667,-0.041202005
0.0653125,-0.0405921191
0.06533333333,-0.04001473635
0.06535416667,-0.0394779928
0.065375,-0.03896003962
0.06539583333,-0.03844211996
0.06541666667,-0.03808564693
0.0654375,-0.03776526824
0.06545833333,-0.03755175322
0.06547916667,-0.03743659332
0.0655,-0.03725209832
0.06552083333,-0.0371228233
0.06554166667,-0.03707336262
0.0655625,-0.03703008592
0.06558333333,-0.03701256588
0.06560416667,-0.03707763553
0.065625,-0.03718915582
0.06564583333,-0.0373768732
0.06566666667,-0.0375257507
0.0656875,-0.03759407625
0.06570833333,-0.03773648664
0.06572916667,-0.03780082241
0.06575,-0.03784272075
0.06577083333,-0.03776557744
0.06579166667,-0.03759912401
0.0658125,-0.0374352932
0.06583333333,-0.03714736924
0.06585416667,-0.03683306649
0.065875,-0.03643507138
0.06589583333,-0.03580154851
0.06591666667,-0.03517824039
0.0659375,-0.03443339467
0.06595833333,-0.03361625597
0.06597916667,-0.03271943703
0.066,-0.03182964772
0.06602083333,-0.03089950979
0.06604166667,-0.0299535878
0.0660625,-0.02890784293
0.06608333333,-0.02783643454
0.06610416667,-0.02683517151
0.066125,-0.02572771348
0.06614583333,-0.02464512549
0.06616666667,-0.02350333333
0.0661875,-0.02231515199
0.06620833333,-0.02118742466
0.06622916667,-0.02004914917
0.06625,-0.01888389885
0.06627083333,-0.01777351089
0.06629166667,-0.01670190506
0.0663125,-0.01571265608
0.06633333333,-0.01468566339
0.06635416667,-0.01370146684
0.066375,-0.01278017927
0.06639583333,-0.01184274163
0.06641666667,-0.0110568041
0.0664375,-0.01024731249
0.06645833333,-0.009401301853
0.06647916667,-0.008622225374
0.0665,-0.007888073102
0.06652083333,-0.00726440642
0.06654166667,-0.006684850901
0.0665625,-0.006107356399
0.06658333333,-0.005572167691
0.06660416667,-0.005071782973
0.066625,-0.004642226268
0.06664583333,-0.004310036078
0.06666666667,-0.003974407911
0.0666875,-0.003736437997
0.06670833333,-0.003434975166
0.06672916667,-0.003166473471
0.06675,-0.002954229014
0.06677083333,-0.002708729822
0.06679166667,-0.002487970283
0.0668125,-0.002311180113
0.06683333333,-0.002158037387
0.06685416667,-0.002022716682
0.066875,-0.001896248432
0.06689583333,-0.001708333846
0.06691666667,-0.001375741092
0.0669375,-0.0009269954171
0.06695833333,-0.0005614950787
0.06697916667,-0.0001604582649
0.067,0.0002888666932
0.06702083333,0.0007233887445
0.06704166667,0.001163096866
0.0670625,0.001609485946
0.06708333333,0.002190515632
0.06710416667,0.002750750165
0.067125,0.003326279111
0.06714583333,0.003933077678
0.06716666667,0.004481481388
0.0671875,0.005088355858
0.06720833333,0.005698461551
0.06722916667,0.006367955357
0.06725,0.007009024732
0.06727083333,0.007634792943
0.06729166667,0.008281948976
0.0673125,0.008883314207
0.06733333333,0.009420253336
0.06735416667,0.00998878479
0.067375,0.01059847511
0.06739583333,0.01123419963
0.06741666667,0.01184100937
0.0674375,0.01255164761
0.06745833333,0.01318263821
0.06747916667,0.01384516247
0.0675,0.01450521313
0.06752083333,0.01509435661
0.06754166667,0.01568684168
0.0675625,0.01633042656
0.06758333333,0.01692678966
0.06760416667,0.01754306071
0.067625,0.01818597317
0.06764583333,0.01892627403
0.06766666667,0.01973506063
0.0676875,0.0205918476
0.06770833333,0.02153299004
0.06772916667,0.02260505967
0.06775,0.02364734933
0.06777083333,0.02482111193
0.06779166667,0.02610104531
0.0678125,0.02741614729
0.06783333333,0.0288222339
0.06785416667,0.03026654385
0.067875,0.03173794597
0.06789583333,0.03323483095
0.06791666667,0.03474786505
0.0679375,0.03630487993
0.06795833333,0.03784892708
0.06797916667,0.03938169405
0.068,0.04096449167
0.06802083333,0.04240483046
0.06804166667,0.04385093972
0.0680625,0.04521214217
0.06808333333,0.04657006636
0.06810416667,0.0479718335
0.068125,0.04933988303
0.06814583333,0.05075296387
0.06816666667,0.05224649608
0.0681875,0.05367611349
0.06820833333,0.05517795682
0.06822916667,0.05667855591
0.06825,0.0582168363
0.06827083333,0.05970119685
0.06829166667,0.06112418696
0.0683125,0.06254968792
0.06833333333,0.06389480829
0.06835416667,0.06526283175
0.068375,0.06667594612
0.06839583333,0.06805443764
0.06841666667,0.06947251409
0.0684375,0.07091959566
0.06845833333,0.072300978
0.06847916667,0.0737593323
0.0685,0.07516752183
0.06852083333,0.07650057226
0.06854166667,0.07789063454
0.0685625,0.07914271206
0.06858333333,0.08047953248
0.06860416667,0.08179219067
0.068625,0.08306197822
0.06864583333,0.08431528509
0.06866666667,0.08553914726
0.0686875,0.08679685742
0.06870833333,0.08800852299
0.06872916667,0.08911341429
0.06875,0.09028276056
0.06877083333,0.09141846001
0.06879166667,0.09260111302
0.0688125,0.09373500943
0.06883333333,0.0948741287
0.06885416667,0.09607775509
0.068875,0.09730891883
0.06889583333,0.09838451445
0.06891666667,0.09948165715
0.0689375,0.1006412581
0.06895833333,0.1017426699
0.06897916667,0.1028311029
0.069,0.1039148569
0.06902083333,0.1049933583
0.06904166667,0.1060149297
0.0690625,0.1069876105
0.06908333333,0.1079727933
0.06910416667,0.1088919416
0.069125,0.1098268181
0.06914583333,0.1108423993
0.06916666667,0.1118196845
0.0691875,0.1127335504
0.06920833333,0.1135667413
0.06922916667,0.1144205034
0.06925,0.115264453
0.06927083333,0.1161851957
0.06929166667,0.1170963049
0.0693125,0.1180085316
0.06933333333,0.1189531907
0.06935416667,0.1198802367
0.069375,0.1207902208
0.06939583333,0.1216838062
0.06941666667,0.1225349754
0.0694375,0.1233122945
0.06945833333,0.124067463
0.06947916667,0.1248029172
0.0695,0.1254809499
0.06952083333,0.1260982752
0.06954166667,0.1267007887
0.0695625,0.1272083223
0.06958333333,0.127746582
0.06960416667,0.1281819344
0.069625,0.1286605746
0.06964583333,0.1290385872
0.06966666667,0.1294456124
0.0696875,0.1298271269
0.06970833333,0.1300993115
0.06972916667,0.1304669678
0.06975,0.1307004243
0.06977083333,0.1310011148
0.06979166667,0.1312290281
0.0698125,0.1314419806
0.06983333333,0.1316633821
0.06985416667,0.1318367571
0.069875,0.1320147812
0.06989583333,0.1321652234
0.06991666667,0.1323437691
0.0699375,0.1324798316
0.06995833333,0.1326721311
0.06997916667,0.1328886002
0.07,0.1330932975
0.07002083333,0.1333482116
0.07004166667,0.1336146891
0.0700625,0.1338960081
0.07008333333,0.1342273206
0.07010416667,0.1345544904
0.070125,0.1349606961
0.07014583333,0.135332346
0.07016666667,0.1357479244
0.0701875,0.1361590773
0.07020833333,0.1366292536
0.07022916667,0.1371605396
0.07025,0.1376965791
0.07027083333,0.138228178
0.07029166667,0.1386558115
0.0703125,0.1390632987
0.07033333333,0.1394586265
0.07035416667,0.1398198903
0.070375,0.1402362883
0.07039583333,0.1406733841
0.07041666667,0.1410908103
0.0704375,0.1415404975
0.07045833333,0.1419404
0.07047916667,0.1423408538
0.0705,0.1427899897
0.07052083333,0.1431360692
0.07054166667,0.1435119063
0.0705625,0.1438729316
0.07058333333,0.1440959722
0.07060416667,0.144469738
0.070625,0.1447652876
0.07064583333,0.1450814158
0.07066666667,0.1453068703
0.0706875,0.1455247104
0.07070833333,0.1456971467
0.07072916667,0.1459307075
0.07075,0.1461740583
0.07077083333,0.1467931122
0.07079166667,0.1481210589
0.0708125,0.1493645608
0.07083333333,0.1504521221
0.07085416667,0.1517274827
0.070875,0.1529311389
0.07089583333,0.1544009447
0.07091666667,0.1562360227
0.0709375,0.1578652263
0.07095833333,0.1591457576
0.07097916667,0.1601803154
0.071,0.1609478295
0.07102083333,0.1616012603
0.07104166667,0.1621005386
0.0710625,0.1624255776
0.07108333333,0.1626405865
0.07110416667,0.1626063436
0.071125,0.1624590755
0.07114583333,0.162113145
0.07116666667,0.1616699845
0.0711875,0.161182031
0.07120833333,0.160625264
0.07122916667,0.1601039171
0.07125,0.159431681
0.07127083333,0.1587891877
0.07129166667,0.1580303311
0.0713125,0.1572577506
0.07133333333,0.1564126164
0.07135416667,0.1553915739
0.071375,0.1544128209
0.07139583333,0.1533544809
0.07141666667,0.1522507071
0.0714375,0.1511358768
0.07145833333,0.1501196325
0.07147916667,0.1490317434
0.0715,0.1479071975
0.07152083333,0.146821335
0.07154166667,0.1456935853
0.0715625,0.1446145326
0.07158333333,0.1435070187
0.07160416667,0.1424258947
0.071625,0.141354844
0.07164583333,0.1402789503
0.07166666667,0.1392313838
0.0716875,0.1382182389
0.07170833333,0.1372591257
0.07172916667,0.1363410801
0.07175,0.1353881061
0.07177083333,0.1344369203
0.07179166667,0.1335396618
0.0718125,0.1326394379
0.07183333333,0.1317680329
0.07185416667,0.1308955252
0.071875,0.1300780177
0.07189583333,0.1292068958
0.07191666667,0.1284194142
0.0719375,0.1276280582
0.07195833333,0.1271414012
0.07197916667,0.1270228475
0.072,0.1268324256
0.07202083333,0.1267546713
0.07204166667,0.1271639317
0.0720625,0.1278172135
0.07208333333,0.1281604171
0.07210416667,0.128292948
0.072125,0.1281879097
0.07214583333,0.1279984564
0.07216666667,0.1276528835
0.0721875,0.127212882
0.07220833333,0.1268249154
0.07222916667,0.1263699979
0.07225,0.1258797646
0.07227083333,0.1252257973
0.07229166667,0.1244742051
0.0723125,0.1236985177
0.07233333333,0.1228755489
0.07235416667,0.1220383942
0.072375,0.1211871803
0.07239583333,0.1203582361
0.07241666667,0.1194745898
0.0724375,0.1184976995
0.07245833333,0.1175877303
0.07247916667,0.1165854856
0.0725,0.1156768128
0.07252083333,0.114838779
0.07254166667,0.1141459867
0.0725625,0.1134666726
0.07258333333,0.1128866598
0.07260416667,0.1123817936
0.072625,0.1119351387
0.07264583333,0.1115631536
0.07266666667,0.111223869
0.0726875,0.1109813079
0.07270833333,0.1107278168
0.07272916667,0.1105000973
0.07275,0.1102648526
0.07277083333,0.1100035906
0.07279166667,0.1098283157
0.0728125,0.1096673459
0.07283333333,0.1095039025
0.07285416667,0.109349817
0.072875,0.1091532707
0.07289583333,0.1089799404
0.07291666667,0.1088614315
0.0729375,0.1087506786
0.07295833333,0.1085450649
0.07297916667,0.1084611565
0.073,0.1083130389
0.07302083333,0.1081267372
0.07304166667,0.1079676449
0.0730625,0.1077767238
0.07308333333,0.1075992435
0.07310416667,0.1074994877
0.073125,0.107339099
0.07314583333,0.107228905
0.07316666667,0.1071141586
0.0731875,0.1070515364
0.07320833333,0.1069597304
0.07322916667,0.1068429947
0.07325,0.1066556647
0.07327083333,0.106442377
0.07329166667,0.1061536744
0.0733125,0.1058519259
0.07333333333,0.1054865196
0.07335416667,0.1050572842
0.073375,0.1046399698
0.07339583333,0.1040856913
0.07341666667,0.1034976766
0.0734375,0.1028461456
0.07345833333,0.1021777168
0.07347916667,0.1014415175
0.0735,0.100626938
0.07352083333,0.09975089133
0.07354166667,0.09879932553
0.0735625,0.09783513844
0.07358333333,0.09684423357
0.07360416667,0.09582241625
0.073625,0.09476517141
0.07364583333,0.09370242804
0.07366666667,0.09263171256
0.0736875,0.09158536047
0.07370833333,0.09053808451
0.07372916667,0.0895941034
0.07375,0.08863073587
0.07377083333,0.0876827687
0.07379166667,0.08677337319
0.0738125,0.08581259847
0.07383333333,0.08482619375
0.07385416667,0.08376553655
0.073875,0.08275640756
0.07389583333,0.08177054673
0.07391666667,0.08072756231
0.0739375,0.07974788547
0.07395833333,0.07878354937
0.07397916667,0.07782417536
0.074,0.07691144198
0.07402083333,0.07595586777
0.07404166667,0.07504835725
0.0740625,0.07419902086
0.07408333333,0.07337263972
0.07410416667,0.072500512
0.074125,0.07160945982
0.07414583333,0.07079253346
0.07416666667,0.06995976716
0.0741875,0.06915704906
0.07420833333,0.06842484325
0.07422916667,0.06761633605
0.07425,0.06681293994
0.07427083333,0.06599983573
0.07429166667,0.06522027403
0.0743125,0.0644427985
0.07433333333,0.06373555958
0.07435416667,0.06303220987
0.074375,0.06237307936
0.07439583333,0.06174254417
0.07441666667,0.06104703248
0.0744375,0.06039542705
0.07445833333,0.05978946388
0.07447916667,0.05921244621
0.0745,0.05868520215
0.07452083333,0.05813138187
0.07454166667,0.05760605633
0.0745625,0.05708676577
0.07458333333,0.05661918968
0.07460416667,0.0562075749
0.074625,0.05581363291
0.07464583333,0.05540715903
0.07466666667,0.05507244915
0.0746875,0.05474836007
0.07470833333,0.05438749492
0.07472916667,0.05406961218
0.07475,0.0537349917
0.07477083333,0.05337077379
0.07479166667,0.05303156748
0.0748125,0.05270609632
0.07483333333,0.05239475891
0.07485416667,0.05212437734
0.074875,0.05185430124
0.07489583333,0.05152368546
0.07491666667,0.05110090598
0.0749375,0.05068516731
0.07495833333,0.05023295432
0.07497916667,0.04978754744
0.075,0.04930726066
0.07502083333,0.0488261655
0.07504166667,0.04828201607
0.0750625,0.0476918146
0.07508333333,0.04708156362
0.07510416667,0.04649271071
0.075125,0.04587277398
0.07514583333,0.04519950226
0.07516666667,0.04456014931
0.0751875,0.0439340882
0.07520833333,0.04324386269
0.07522916667,0.04253265262
0.07525,0.04181660339
0.07527083333,0.04106196016
0.07529166667,0.04034025967
0.0753125,0.03964877501
0.07533333333,0.03892152011
0.07535416667,0.03824397177
0.075375,0.03760667145
0.07539583333,0.03704015166
0.07541666667,0.03652706742
0.0754375,0.03607577458
0.07545833333,0.03572742641
0.07547916667,0.03534912318
0.0755,0.03502153978
0.07552083333,0.03477111086
0.07554166667,0.03452246264
0.0755625,0.03438395262
0.07558333333,0.03426549584
0.07560416667,0.03420218453
0.075625,0.03423655778
0.07564583333,0.03423772007
0.07566666667,0.03420907632
0.0756875,0.03414333239
0.07570833333,0.03408363089
0.07572916667,0.0340301767
0.07575,0.03395257145
0.07577083333,0.03389086202
0.07579166667,0.03383724019
0.0758125,0.03370826319
0.07583333333,0.03356502578
0.07585416667,0.03330663964
0.075875,0.0329919979
0.07589583333,0.03255600855
0.07591666667,0.03202373162
0.0759375,0.03141795099
0.07595833333,0.03066771664
0.07597916667,0.02977975458
0.076,0.02883593366
0.07602083333,0.02787096053
0.07604166667,0.02683238871
0.0760625,0.02576494031
0.07608333333,0.02471157163
0.07610416667,0.02361660078
0.076125,0.02258150652
0.07614583333,0.02149106376
0.07616666667,0.02040465921
0.0761875,0.01939673722
0.07620833333,0.01835060492
0.07622916667,0.0172764603
0.07625,0.01624913886
0.07627083333,0.0153038688
0.07629166667,0.0143079441
0.0763125,0.01334699616
0.07633333333,0.01244085189
0.07635416667,0.01151721925
0.076375,0.010654415
0.07639583333,0.009779224172
0.07641666667,0.008862562478
0.0764375,0.008015676402
0.07645833333,0.007161852438
0.07647916667,0.006332637742
0.0765,0.005640430376
0.07652083333,0.004961011931
0.07654166667,0.004363615531
0.0765625,0.003857564414
0.07658333333,0.003373833373
0.07660416667,0.0029447251
0.076625,0.00247856346
0.07664583333,0.002130660461
0.07666666667,0.001793864183
0.0766875,0.001480124891
0.07670833333,0.00121059455
0.07672916667,0.0009485704359
0.07675,0.0006576383021
0.07677083333,0.0003367238678
0.07679166667,5.489611067e-05
0.0768125,-0.0001989665907
0.07683333333,-0.0004322296008
0.07685416667,-0.000600222731
0.076875,-0.0008699006867
0.07689583333,-0.0011706925
0.07691666667,-0.001463045133
0.0769375,-0.001811906695
0.07695833333,-0.002223103307
0.07697916667,-0.002603566274
0.077,-0.003058315255
0.07702083333,-0.00357144908
0.07704166667,-0.004158161581
0.0770625,-0.004777294118
0.07708333333,-0.005442590918
0.07710416667,-0.006113282871
0.077125,-0.006806690246
0.07714583333,-0.00755261071
0.07716666667,-0.008326070383
0.0771875,-0.009115359746
0.07720833333,-0.009877168573
0.07722916667,-0.01061458886
0.07725,-0.01132202521
0.07727083333,-0.01199100539
0.07729166667,-0.01275081374
0.0773125,-0.01351083815
0.07733333333,-0.01428267173
0.07735416667,-0.01505509205
0.077375,-0.01576062664
0.07739583333,-0.01650122553
0.07741666667,-0.01727546751
0.0774375,-0.01800296828
0.07745833333,-0.0187045522
0.07747916667,-0.01934905909
0.0775,-0.02000054903
0.07752083333,-0.02059848048
0.07754166667,-0.02121496387
0.0775625,-0.02185195871
0.07758333333,-0.02247139998
0.07760416667,-0.02312495001
0.077625,-0.02377375774
0.07764583333,-0.02446534112
0.07766666667,-0.02517387643
0.0776875,-0.02599331178
0.07770833333,-0.02694404311
0.07772916667,-0.02788684703
0.07775,-0.02889809199
0.07777083333,-0.02997075394
0.07779166667,-0.03107503057
0.0778125,-0.03231498972
0.07783333333,-0.03354296461
0.07785416667,-0.03477175906
0.077875,-0.03613299876
0.07789583333,-0.0374747403
0.07791666667,-0.03887627646
0.0779375,-0.04029044509
0.07795833333,-0.04169912636
0.07797916667,-0.04327060655
0.078,-0.04488445073
0.07802083333,-0.04653650895
0.07804166667,-0.04819793627
0.0780625,-0.04980737343
0.07808333333,-0.05142905936
0.07810416667,-0.05307726562
0.078125,-0.05476118624
0.07814583333,-0.05651289597
0.07816666667,-0.05827316642
0.0781875,-0.06003092974
0.07820833333,-0.06175877154
0.07822916667,-0.06344226748
0.07825,-0.06513953209
0.07827083333,-0.06683582067
0.07829166667,-0.06849640608
0.0783125,-0.07016289979
0.07833333333,-0.07181204855
0.07835416667,-0.07339761406
0.078375,-0.07498093694
0.07839583333,-0.07648643851
0.07841666667,-0.07799334079
0.0784375,-0.07951956242
0.07845833333,-0.08100465685
0.07847916667,-0.08250578493
0.0785,-0.08387949318
0.07852083333,-0.08525858819
0.07854166667,-0.08667625487
0.0785625,-0.08808044344
0.07858333333,-0.08947169036
0.07860416667,-0.09079942107
0.078625,-0.09207928181
0.07864583333,-0.09332127869
0.07866666667,-0.09451602399
0.0786875,-0.09574338794
0.07870833333,-0.09695518017
0.07872916667,-0.09808946401
0.07875,-0.09926585108
0.07877083333,-0.100362882
0.07879166667,-0.1014358401
0.0788125,-0.1025823504
0.07883333333,-0.1036860719
0.07885416667,-0.1047704294
0.078875,-0.1058398336
0.07889583333,-0.1069013625
0.07891666667,-0.1079942286
0.0789375,-0.1089999303
0.07895833333,-0.1100025773
0.07897916667,-0.1111004874
0.079,-0.1121012792
0.07902083333,-0.1130935401
0.07904166667,-0.1140664592
0.0790625,-0.1150119454
0.07908333333,-0.1159759834
0.07910416667,-0.1168908626
0.079125,-0.1178487316
0.07914583333,-0.1187615022
0.07916666667,-0.1197099313
0.0791875,-0.1206519455
0.07920833333,-0.1215457022
0.07922916667,-0.1224618331
0.07925,-0.1233246848
0.07927083333,-0.1241756082
0.07929166667,-0.1250503063
0.0793125,-0.1258946806
0.07933333333,-0.1266974658
0.07935416667,-0.1274803877
0.079375,-0.1282327026
0.07939583333,-0.128962785
0.07941666667,-0.1296265125
0.0794375,-0.1302164942
0.07945833333,-0.1307833344
0.07947916667,-0.1313278377
0.0795,-0.1318549067
0.07952083333,-0.1323267221
0.07954166667,-0.1326937377
0.0795625,-0.1330735981
0.07958333333,-0.1334406883
0.07960416667,-0.133747384
0.079625,-0.1341286004
0.07964583333,-0.1344700307
0.07966666667,-0.134740904
0.0796875,-0.1349726915
0.07970833333,-0.1351675242
0.07972916667,-0.1353726834
0.07975,-0.1355516762
0.07977083333,-0.1357573867
0.07979166667,-0.1359403133
0.0798125,-0.1360260844
0.07983333333,-0.1361478418
0.07985416667,-0.1361670792
0.079875,-0.1361877918
0.07989583333,-0.1362476051
0.07991666667,-0.1362750083
0.0799375,-0.1363894939
0.07995833333,-0.1365552694
0.07997916667,-0.1368009001
0.08,-0.1371425688
0.08002083333,-0.1373666972
0.08004166667,-0.1375886202
0.0800625,-0.1378266811
0.08008333333,-0.1380129009
0.08010416667,-0.1382563561
0.080125,-0.1385249197
0.08014583333,-0.1387664676
0.08016666667,-0.1391171068
0.0801875,-0.1394584924
0.08020833333,-0.1397390664
0.08022916667,-0.1400252432
0.08025,-0.1402919888
0.08027083333,-0.1405868083
0.08029166667,-0.1409042925
0.0803125,-0.1411911994
0.08033333333,-0.1415172964
0.08035416667,-0.1417979896
0.080375,-0.1420553625
0.08039583333,-0.1422709674
0.08041666667,-0.1424359232
0.0804375,-0.1426463276
0.08045833333,-0.1428294629
0.08047916667,-0.1430105418
0.0805,-0.1432162821
0.08052083333,-0.143398568
0.08054166667,-0.1435480565
0.0805625,-0.1436565816
0.08058333333,-0.1437383741
0.08060416667,-0.1437777579
0.080625,-0.1438197345
0.08064583333,-0.1438491046
0.08066666667,-0.1438350379
0.0806875,-0.1438010782
0.08070833333,-0.1437205672
0.08072916667,-0.1436471045
0.08075,-0.1435701996
0.08077083333,-0.1434506625
0.08079166667,-0.1433935314
0.0808125,-0.1433605403
0.08083333333,-0.1432956457
0.08085416667,-0.1431892663
0.080875,-0.1430371702
0.08089583333,-0.142887935
0.08091666667,-0.1426739544
0.0809375,-0.1425799429
0.08095833333,-0.1424203366
0.08097916667,-0.1420774609
0.081,-0.1416285187
0.08102083333,-0.1408949047
0.08104166667,-0.1401230395
0.0810625,-0.1394199431
0.08108333333,-0.1386462897
0.08110416667,-0.137974754
0.081125,-0.1373687536
0.08114583333,-0.1368141919
0.08116666667,-0.136241138
0.0811875,-0.135732621
0.08120833333,-0.1352783144
0.08122916667,-0.1347549558
0.08125,-0.134219557
0.08127083333,-0.1336770058
0.08129166667,-0.1331711709
0.0813125,-0.1326424927
0.08133333333,-0.1320907921
0.08135416667,-0.1315896958
0.081375,-0.1310196668
0.08139583333,-0.1304621696
0.08141666667,-0.1299387217
0.0814375,-0.1294173151
0.08145833333,-0.1289136261
0.08147916667,-0.1283388734
0.0815,-0.1277639419
0.08152083333,-0.127218008
0.08154166667,-0.126639396
0.0815625,-0.1259996742
0.08158333333,-0.1253800839
0.08160416667,-0.1247963235
0.081625,-0.1241851151
0.08164583333,-0.1236225292
0.08166666667,-0.1230195612
0.0816875,-0.1223523244
0.08170833333,-0.1216897592
0.08172916667,-0.1209846959
0.08175,-0.1202887744
0.08177083333,-0.1195401549
0.08179166667,-0.1188272536
0.0818125,-0.1181599647
0.08183333333,-0.1174664274
0.08185416667,-0.116825819
0.081875,-0.1161488891
0.08189583333,-0.1154578999
0.08191666667,-0.1148011088
0.0819375,-0.1141054332
0.08195833333,-0.1133816168
0.08197916667,-0.1126951873
0.082,-0.1119562685
0.08202083333,-0.1112674549
0.08204166667,-0.1106174365
0.0820625,-0.109866038
0.08208333333,-0.1090423539
0.08210416667,-0.1081814319
0.082125,-0.1073855013
0.08214583333,-0.1066793203
0.08216666667,-0.1059637442
0.0821875,-0.1052657366
0.08220833333,-0.1045542434
0.08222916667,-0.1038354635
0.08225,-0.1031298786
0.08227083333,-0.1024914384
0.08229166667,-0.1018859521
0.0823125,-0.1012274921
0.08233333333,-0.1006231904
0.08235416667,-0.1000131518
0.082375,-0.09940572083
0.08239583333,-0.09881065786
0.08241666667,-0.09821166843
0.0824375,-0.09766894579
0.08245833333,-0.09715016931
0.08247916667,-0.09662565589
0.0825,-0.09609915316
0.08252083333,-0.09565058351
0.08254166667,-0.09529179335
0.0825625,-0.09502514452
0.08258333333,-0.09484563023
0.08260416667,-0.0947136879
0.082625,-0.09462846816
0.08264583333,-0.09460895509
0.08266666667,-0.09464490414
0.0826875,-0.09464870393
0.08270833333,-0.09464352578
0.08272916667,-0.09468325227
0.08275,-0.09473005682
0.08277083333,-0.09483080357
0.08279166667,-0.09493910521
0.0828125,-0.09506817162
0.08283333333,-0.09520675987
0.08285416667,-0.09533935785
0.082875,-0.09545989335
0.08289583333,-0.09563004225
0.08291666667,-0.09575664252
0.0829375,-0.0957826674
0.08295833333,-0.09583257884
0.08297916667,-0.09588735551
0.083,-0.09592122585
0.08302083333,-0.09587199241
0.08304166667,-0.09579380602
0.0830625,-0.09573160857
0.08308333333,-0.09569078684
0.08310416667,-0.09569557011
0.083125,-0.09567522258
0.08314583333,-0.09564851969
0.08316666667,-0.09561675042
0.0831875,-0.09561657906
0.08320833333,-0.09565568715
0.08322916667,-0.09564279765
0.08325,-0.09562075883
0.08327083333,-0.09556499124
0.08329166667,-0.09546366334
0.0833125,-0.09530462325
0.08333333333,-0.09507570416
0.08335416667,-0.09484132379
0.083375,-0.09458402544
0.08339583333,-0.09428748488
0.08341666667,-0.09391518682
0.0834375,-0.09346353263
0.08345833333,-0.09295086563
0.08347916667,-0.09238134325
0.0835,-0.09180343151
0.08352083333,-0.09121604264
0.08354166667,-0.09063404799
0.0835625,-0.090015769
0.08358333333,-0.08933911473
0.08360416667,-0.08863581717
0.083625,-0.08786726743
0.08364583333,-0.08707653731
0.08366666667,-0.08634345978
0.0836875,-0.08554941416
0.08370833333,-0.08468617499
0.08372916667,-0.08382577449
0.08375,-0.0829622075
0.08377083333,-0.08209961653
0.08379166667,-0.08123428375
0.0838125,-0.08034436405
0.08383333333,-0.07944057137
0.08385416667,-0.0784701556
0.083875,-0.07757519186
0.08389583333,-0.07668875158
0.08391666667,-0.07581350952
0.0839375,-0.07499285787
0.08395833333,-0.07414977998
0.08397916667,-0.07331681997
0.084,-0.07249963284
0.08402083333,-0.07166623324
0.08404166667,-0.07084460557
0.0840625,-0.07005830109
0.08408333333,-0.06928303093
0.08410416667,-0.06847766787
0.084125,-0.06774086505
0.08414583333,-0.06705098599
0.08416666667,-0.06636296213
0.0841875,-0.06568256766
0.08420833333,-0.06503099948
0.08422916667,-0.06433819234
0.08425,-0.06360600889
0.08427083333,-0.06289415061
0.08429166667,-0.06215361878
0.0843125,-0.0615077205
0.08433333333,-0.06084078178
0.08435416667,-0.06019344181
0.084375,-0.05953538418
0.08439583333,-0.05881817266
0.08441666667,-0.05819009617
0.0844375,-0.05751112476
0.08445833333,-0.05687063932
0.08447916667,-0.05624521524
0.0845,-0.05558395013
0.08452083333,-0.0549803935
0.08454166667,-0.05438649654
0.0845625,-0.05388521031
0.08458333333,-0.05339060724
0.08460416667,-0.05293204635
0.084625,-0.05256316438
0.08464583333,-0.05227610096
0.08466666667,-0.05200938508
0.0846875,-0.05174460635
0.08470833333,-0.05156252533
0.08472916667,-0.05137638748
0.08475,-0.0512275286
0.08477083333,-0.05111145973
0.08479166667,-0.05096589401
0.0848125,-0.05084761605
0.08483333333,-0.05069828779
0.08485416667,-0.05053045973
0.084875,-0.05037749559
0.08489583333,-0.05019993708
0.08491666667,-0.04996361583
0.0849375,-0.04968744144
0.08495833333,-0.04934016243
0.08497916667,-0.04894740134
0.085,-0.04853755236
0.08502083333,-0.04807981104
0.08504166667,-0.04757518321
0.0850625,-0.04704132304
0.08508333333,-0.04654439166
0.08510416667,-0.04594941065
0.085125,-0.04532244802
0.08514583333,-0.04472586885
0.08516666667,-0.04407074302
0.0851875,-0.04345709831
0.08520833333,-0.04279338568
0.08522916667,-0.04210798815
0.08525,-0.0414740555
0.08527083333,-0.04084829986
0.08529166667,-0.04026475549
0.0853125,-0.03968778253
0.08533333333,-0.03925063089
0.08535416667,-0.03878607601
0.085375,-0.03834992647
0.08539583333,-0.03797621652
0.08541666667,-0.03757783771
0.0854375,-0.03725101054
0.08545833333,-0.0369643271
0.08547916667,-0.03661229089
0.0855,-0.0363451466
0.08552083333,-0.03614656255
0.08554166667,-0.03599122539
0.0855625,-0.03587459028
0.08558333333,-0.03582695499
0.08560416667,-0.03579419479
0.085625,-0.03575821966
0.08564583333,-0.03572912887
0.08566666667,-0.03568311036
0.0856875,-0.03567697108
0.08570833333,-0.03564824164
0.08572916667,-0.03560413793
0.08575,-0.03552861512
0.08577083333,-0.03544318676
0.08579166667,-0.03532454744
0.0858125,-0.03509292006
0.08583333333,-0.03487983346
0.08585416667,-0.03463422507
0.085875,-0.03430005535
0.08589583333,-0.03393271193
0.08591666667,-0.03342416883
0.0859375,-0.03284751996
0.08595833333,-0.03218650818
0.08597916667,-0.03141460195
0.086,-0.03055916168
0.08602083333,-0.02965774201
0.08604166667,-0.02872727625
0.0860625,-0.02774776518
0.08608333333,-0.02675286308
0.08610416667,-0.02568951249
0.086125,-0.02457578108
0.08614583333,-0.02349622734
0.08616666667,-0.02232833207
0.0861875,-0.02118607052
0.08620833333,-0.02001204342
0.08622916667,-0.01881395094
0.08625,-0.0176998172
0.08627083333,-0.01661426388
0.08629166667,-0.01555197313
0.0863125,-0.01450070925
0.08633333333,-0.01343432907
0.08635416667,-0.01245672256
0.086375,-0.01150234416
0.08639583333,-0.01060274988
0.08641666667,-0.009833943099
0.0864375,-0.009130897932
0.08645833333,-0.008451582864
0.08647916667,-0.007789662108
0.0865,-0.00714226719
0.08652083333,-0.00655355351
0.08654166667,-0.006003363058
0.0865625,-0.005497419275
0.08658333333,-0.005058858544
0.08660416667,-0.004673657008
0.086625,-0.004375319462
0.08664583333,-0.004065929912
0.08666666667,-0.003854948329
0.0866875,-0.003647209844
0.08670833333,-0.003449295182
0.08672916667,-0.003322898876
0.08675,-0.00319618918
0.08677083333,-0.003129617777
0.08679166667,-0.00304721226
0.0868125,-0.002997939708
0.08683333333,-0.002988481661
0.08685416667,-0.002898768522
0.086875,-0.002841778798
0.08689583333,-0.002716751769
0.08691666667,-0.002466622973
0.0869375,-0.002207976067
0.08695833333,-0.00185016566
0.08697916667,-0.001430139178
0.087,-0.000995068578
0.08702083333,-0.0005149887875
0.08704166667,7.755402476e-05
0.0870625,0.0006983370986
0.08708333333,0.001346898964
0.08710416667,0.002021343214
0.087125,0.002714761766
0.08714583333,0.003485385329
0.08716666667,0.004264859948
0.0871875,0.005030980334
0.08720833333,0.005842691753
0.08722916667,0.006576750427
0.08725,0.00728782732
0.08727083333,0.007980632596
0.08729166667,0.008557562716
0.0873125,0.009187006392
0.08733333333,0.009786780924
0.08735416667,0.01033114735
0.087375,0.01095897332
0.08739583333,0.01155850105
0.08741666667,0.01220580563
0.0874375,0.01286385767
0.08745833333,0.01343472861
0.08747916667,0.01406365447
0.0875,0.01463001035
0.08752083333,0.01513334457
0.08754166667,0.01565823704
0.0875625,0.0161516536
0.08758333333,0.01672609523
0.08760416667,0.01731513441
0.087625,0.01793141849
0.08764583333,0.01858792268
0.08766666667,0.01922831871
0.0876875,0.01991997845
0.08770833333,0.02059327997
0.08772916667,0.02136599645
0.08775,0.02223535627
0.08777083333,0.02309608459
0.08779166667,0.02408925444
0.0878125,0.02514975332
0.08783333333,0.02622430585
0.08785416667,0.02739720047
0.087875,0.02860277891
0.08789583333,0.0298298616
0.08791666667,0.03117080033
0.0879375,0.03251766413
0.08795833333,0.03389690071
0.08797916667,0.03534304723
0.088,0.03679196537
0.08802083333,0.03831061721
0.08804166667,0.03979927674
0.0880625,0.04137464613
0.08808333333,0.04295033962
0.08810416667,0.04446838796
0.088125,0.04608502984
0.08814583333,0.04767553508
0.08816666667,0.04928926378
0.0881875,0.05091851205
0.08820833333,0.05254312232
0.08822916667,0.05421528965
0.08825,0.05591602996
0.08827083333,0.05758907646
0.08829166667,0.05909805
0.0883125,0.0606104508
0.08833333333,0.0620649755
0.08835416667,0.06359111518
0.088375,0.06510862708
0.08839583333,0.06651257724
0.08841666667,0.06797099859
0.0884375,0.06933143735
0.08845833333,0.07075273991
0.08847916667,0.07213983685
0.0885,0.07350020856
0.08852083333,0.07496011257
0.08854166667,0.07635451853
0.0885625,0.07776226103
0.08858333333,0.07912781835
0.08860416667,0.08044794202
0.088625,0.08179457486
0.08864583333,0.08311638981
0.08866666667,0.08444721997
0.0886875,0.08572115004
0.08870833333,0.08694174141
0.08872916667,0.08815888315
0.08875,0.08936857432
0.08877083333,0.09050878882
0.08879166667,0.09164017439
0.0888125,0.0927688852
0.08883333333,0.09379674494
0.08885416667,0.09485428035
0.088875,0.0959226191
0.08889583333,0.09697666764
0.08891666667,0.09809153527
0.0889375,0.09913490713
0.08895833333,0.1001905724
0.08897916667,0.1012364477
0.089,0.1022657529
0.08902083333,0.1032566354
0.08904166667,0.1042172685
0.0890625,0.1052378789
0.08908333333,0.1062265038
0.08910416667,0.1072387993
0.089125,0.1082021371
0.08914583333,0.1091663092
0.08916666667,0.1101939082
0.0891875,0.1112159416
0.08920833333,0.1122873276
0.08922916667,0.113298595
0.08925,0.1143419147
0.08927083333,0.1153795421
0.08929166667,0.1163401008
0.0893125,0.1173399091
0.08933333333,0.1182621121
0.08935416667,0.1192430183
0.089375,0.1202313006
0.08939583333,0.1211499423
0.08941666667,0.1220923364
0.0894375,0.1229815707
0.08945833333,0.1238222942
0.08947916667,0.1246325821
0.0895,0.1253916919
0.08952083333,0.1260768324
0.08954166667,0.1267094612
0.0895625,0.1273132116
0.08958333333,0.1278924793
0.08960416667,0.1284459084
0.089625,0.1289216727
0.08964583333,0.1294492185
0.08966666667,0.1299149394
0.0896875,0.130370155
0.08970833333,0.1307996362
0.08972916667,0.1311369985
0.08975,0.1315347254
0.08977083333,0.1318453848
0.08979166667,0.1321468055
0.0898125,0.1324162483
0.08983333333,0.1326305419
0.08985416667,0.1329097748
0.089875,0.133148998
0.08989583333,0.133427754
0.08991666667,0.133708775
0.0899375,0.1340004206
0.08995833333,0.1343300343
0.08997916667,0.1346145719
0.09,0.1349162012
0.09002083333,0.1352172643
0.09004166667,0.1355830878
0.0900625,0.1359825879
0.09008333333,0.1363878548
0.09010416667,0.1368222684
0.090125,0.1372013837
0.09014583333,0.137616992
0.09016666667,0.1380047053
0.0901875,0.1384244114
0.09020833333,0.1389201134
0.09022916667,0.1393726021
0.09025,0.1398530304
0.09027083333,0.1403042227
0.09029166667,0.14069134
0.0903125,0.1410230398
0.09033333333,0.1412739605
0.09035416667,0.1415028572
0.090375,0.1416920871
0.09039583333,0.1418907493
0.09041666667,0.1421142966
0.0904375,0.142295301
0.09045833333,0.1424364895
0.09047916667,0.1426112056
0.0905,0.1427353472
0.09052083333,0.1428738832
0.09054166667,0.1430729628
0.0905625,0.1432654858
0.09058333333,0.1433945596
0.09060416667,0.1435121149
0.090625,0.1436273456
0.09064583333,0.143700406
0.09066666667,0.1437642723
0.0906875,0.1438303143
0.09070833333,0.1438757181
0.09072916667,0.1439494789
0.09075,0.1439952403
0.09077083333,0.143981576
0.09079166667,0.143990308
0.0908125,0.1439031512
0.09083333333,0.1438658983
0.09085416667,0.1439116448
0.090875,0.1438708454
0.09089583333,0.1439552307
0.09091666667,0.1439456791
0.0909375,0.1439030915
0.09095833333,0.1438865364
0.09097916667,0.1437100321
0.091,0.1438374668
0.09102083333,0.1442114711
0.09104166667,0.1448027194
0.0910625,0.145523876
0.09108333333,0.1461937129
0.09110416667,0.1468343139
0.091125,0.1473001093
0.09114583333,0.1476617903
0.09116666667,0.1477813423
0.0911875,0.147807017
0.09120833333,0.1478217244
0.09122916667,0.1477048099
0.09125,0.1474788487
0.09127083333,0.1472004801
0.09129166667,0.1468233317
0.0913125,0.1463113725
0.09133333333,0.1457773298
0.09135416667,0.1451265663
0.091375,0.1443656683
0.09139583333,0.1435899138
0.09141666667,0.1427111775
0.0914375,0.141819343
0.09145833333,0.1409243941
0.09147916667,0.140028283
