time,data
0,6.0352356e-08
2.083333333e-05,1.026703629e-07
4.166666667e-05,1.324948613e-07
6.25e-05,1.461365571e-07
8.333333333e-05,1.577376878e-07
0.0001041666667,1.778848002e-07
0.000125,2.05942456e-07
0.0001458333333,2.389972167e-07
0.0001666666667,2.597388971e-07
0.0001875,2.703083055e-07
0.0002083333333,2.711334446e-07
0.0002291666667,2.792063754e-07
0.00025,3.03482949e-07
0.0002708333333,3.427175557e-07
0.0002916666667,3.929049228e-07
0.0003125,4.364667916e-07
0.0003333333333,4.767544795e-07
0.0003541666667,5.101505849e-07
0.000375,5.492498758e-07
0.0003958333333,5.960858402e-07
0.0004166666667,6.449633361e-07
0.0004375,6.92715048e-07
0.0004583333333,7.237003388e-07
0.0004791666667,7.45062664e-07
0.0005,7.529281447e-07
0.0005208333333,7.597487297e-07
0.0005416666667,7.684978414e-07
0.0005625,7.7996242e-07
0.0005833333333,7.996933391e-07
0.0006041666667,8.189166465e-07
0.000625,8.455065768e-07
0.0006458333333,8.693485825e-07
0.0006666666667,8.967768395e-07
0.0006875,9.257754527e-07
0.0007083333333,9.595231631e-07
0.0007291666667,1.003053058e-06
0.00075,1.043533871e-06
0.0007708333333,1.07976598e-06
0.0007916666667,1.088488148e-06
0.0008125,1.07644064e-06
0.0008333333333,1.045809086e-06
0.0008541666667,1.014228246e-06
0.000875,9.965821164e-07
0.0008958333333,9.789299611e-07
0.0009166666667,9.589625733e-07
0.0009375,9.09826781e-07
0.0009583333333,8.479944995e-07
0.0009791666667,7.900785022e-07
0.001,7.62100683e-07
0.001020833333,7.773458037e-07
0.001041666667,8.031151992e-07
0.0010625,8.193461554e-07
0.001083333333,7.879175428e-07
0.001104166667,7.276118481e-07
0.001125,6.632674854e-07
0.001145833333,6.213970778e-07
0.001166666667,6.070932272e-07
0.0011875,5.768062579e-07
0.001208333333,5.044412319e-07
0.001229166667,3.676618121e-07
0.00125,2.054485293e-07
0.001270833333,6.092449212e-08
0.001291666667,-2.934260124e-08
0.0013125,-7.206034525e-08
0.001333333333,-1.145982367e-07
0.001354166667,-1.830743912e-07
0.001375,-2.962822805e-07
0.001395833333,-4.02935882e-07
0.001416666667,-4.745874662e-07
0.0014375,-4.912697023e-07
0.001458333333,-4.823845074e-07
0.001479166667,-5.099466307e-07
0.0015,-5.913631185e-07
0.001520833333,-7.387571372e-07
0.001541666667,-8.924282042e-07
0.0015625,-1.026389327e-06
0.001583333333,-1.127636665e-06
0.001604166667,-1.216637088e-06
0.001625,-1.337813842e-06
0.001645833333,-1.481306754e-06
0.001666666667,-1.64160042e-06
0.0016875,-1.763290243e-06
0.001708333333,-1.834264935e-06
0.001729166667,-1.855846563e-06
0.00175,-1.857126449e-06
0.001770833333,-1.872694725e-06
0.001791666667,-1.899921017e-06
0.0018125,-1.946458269e-06
0.001833333333,-1.97942154e-06
0.001854166667,-2.014284519e-06
0.001875,-2.046862164e-06
0.001895833333,-2.093432386e-06
0.001916666667,-2.169012987e-06
0.0019375,-2.253026878e-06
0.001958333333,-2.363421572e-06
0.001979166667,-2.461049007e-06
0.002,-2.553986405e-06
0.002020833333,-2.610481033e-06
0.002041666667,-2.618309509e-06
0.0020625,-2.589418955e-06
0.002083333333,-2.519381042e-06
0.002104166667,-2.463021929e-06
0.002125,-2.406184876e-06
0.002145833333,-2.360130566e-06
0.002166666667,-2.289083795e-06
0.0021875,-2.171717369e-06
0.002208333333,-2.043718496e-06
0.002229166667,-1.926484629e-06
0.00225,-1.89467994e-06
0.002270833333,-1.9278541e-06
0.002291666667,-1.995685807e-06
0.0023125,-2.022071612e-06
0.002333333333,-1.963784143e-06
0.002354166667,-1.853582376e-06
0.002375,-1.734565444e-06
0.002395833333,-1.678302397e-06
0.002416666667,-1.651968319e-06
0.0024375,-1.605306124e-06
0.002458333333,-1.453541017e-06
0.002479166667,-1.183959057e-06
0.0025,-8.678543963e-07
0.002520833333,-5.852460276e-07
0.002541666667,-4.272391152e-07
0.0025625,-3.467471856e-07
0.002583333333,-2.94179813e-07
0.002604166667,-1.802452374e-07
0.002625,-8.660663853e-10
0.002645833333,1.721440412e-07
0.002666666667,2.88285122e-07
0.0026875,2.944156563e-07
0.002708333333,2.719238523e-07
0.002729166667,2.865390627e-07
0.00275,4.101662512e-07
0.002770833333,6.3679596e-07
0.002791666667,8.895538031e-07
0.0028125,1.130192913e-06
0.002833333333,1.309308914e-06
0.002854166667,1.487746317e-06
0.002875,1.67780297e-06
0.002895833333,1.908203103e-06
0.002916666667,2.14456486e-06
0.0029375,2.327696848e-06
0.002958333333,2.452937224e-06
0.002979166667,2.490945462e-06
0.003,2.501230256e-06
0.003020833333,2.486646054e-06
0.003041666667,2.476816235e-06
0.0030625,2.4839037e-06
0.003083333333,2.504342319e-06
0.003104166667,2.573154006e-06
0.003125,2.660285872e-06
0.003145833333,2.781219791e-06
0.003166666667,2.889872121e-06
0.0031875,3.002222684e-06
0.003208333333,3.12821885e-06
0.003229166667,3.281856834e-06
0.00325,3.472528761e-06
0.003270833333,3.617845778e-06
0.003291666667,3.688021934e-06
0.0033125,3.618951951e-06
0.003333333333,3.469090871e-06
0.003354166667,3.315774848e-06
0.003375,3.209559964e-06
0.003395833333,3.17754575e-06
0.003416666667,3.105710903e-06
0.0034375,2.968899253e-06
0.003458333333,2.734816007e-06
0.003479166667,2.519943564e-06
0.0035,2.438828233e-06
0.003520833333,2.520353519e-06
0.003541666667,2.714864422e-06
0.0035625,2.839708259e-06
0.003583333333,2.81726534e-06
0.003604166667,2.637854323e-06
0.003625,2.437813919e-06
0.003645833333,2.335420049e-06
0.003666666667,2.332760005e-06
0.0036875,2.330513553e-06
0.003708333333,2.148556632e-06
0.003729166667,1.763640512e-06
0.00375,1.241168093e-06
0.003770833333,7.957305002e-07
0.003791666667,5.467138067e-07
0.0038125,4.82845735e-07
0.003833333333,4.747573428e-07
0.003854166667,3.469830858e-07
0.003875,1.053060572e-07
0.003895833333,-1.79053643e-07
0.003916666667,-3.250853808e-07
0.0039375,-2.892082307e-07
0.003958333333,-1.616764251e-07
0.003979166667,-9.42483851e-08
0.004,-2.533217298e-07
0.004020833333,-5.866527886e-07
0.004041666667,-1.015112161e-06
0.0040625,-1.364081186e-06
0.004083333333,-1.60501645e-06
0.004104166667,-1.795946673e-06
0.004125,-2.024891955e-06
0.004145833333,-2.361303359e-06
0.004166666667,-2.720266139e-06
0.0041875,-3.027104185e-06
0.004208333333,-3.162474059e-06
0.004229166667,-3.147219331e-06
0.00425,-3.042307299e-06
0.004270833333,-2.929936727e-06
0.004291666667,-2.895261105e-06
0.0043125,-2.896225851e-06
0.004333333333,-2.95537825e-06
0.004354166667,-2.990049779e-06
0.004375,-3.034196652e-06
0.004395833333,-3.079835778e-06
0.004416666667,-3.154487786e-06
0.0044375,-3.316466973e-06
0.004458333333,-3.526444971e-06
0.004479166667,-3.812307568e-06
0.0045,-4.044150501e-06
0.004520833333,-4.16580724e-06
0.004541666667,-4.107857421e-06
0.0045625,-3.877657036e-06
0.004583333333,-3.614310344e-06
0.004604166667,-3.371611001e-06
0.004625,-3.245186917e-06
0.004645833333,-3.109926638e-06
0.004666666667,-2.886028824e-06
0.0046875,-2.498365802e-06
0.004708333333,-2.029110192e-06
0.004729166667,-1.685344841e-06
0.00475,-1.583267931e-06
0.004770833333,-1.762294914e-06
0.004791666667,-1.988956456e-06
0.0048125,-2.071898507e-06
0.004833333333,-1.880294121e-06
0.004854166667,-1.517073883e-06
0.004875,-1.227788857e-06
0.004895833333,-1.117597435e-06
0.004916666667,-1.187567932e-06
0.0049375,-1.129705197e-06
0.004958333333,-7.748114967e-07
0.004979166667,-5.502680267e-08
0.005,7.908283806e-07
0.005020833333,1.437921469e-06
0.005041666667,1.749702733e-06
0.0050625,1.757325435e-06
0.005083333333,1.779239369e-06
0.005104166667,1.977826514e-06
0.005125,2.384427717e-06
0.005145833333,2.775133908e-06
0.005166666667,2.902652795e-06
0.0051875,2.751730108e-06
0.005208333333,2.443375706e-06
0.005229166667,2.324721436e-06
0.00525,2.500070877e-06
0.005270833333,2.970838295e-06
0.005291666667,3.492667702e-06
0.0053125,3.876926257e-06
0.005333333333,4.107343102e-06
0.005354166667,4.260265996e-06
0.005375,4.546818218e-06
0.005395833333,4.932152024e-06
0.005416666667,5.374568445e-06
0.0054375,5.656122084e-06
0.005458333333,5.688965757e-06
0.005479166667,5.526623227e-06
0.0055,5.21646507e-06
0.005520833333,4.97353858e-06
0.005541666667,4.736132723e-06
0.0055625,4.589010132e-06
0.005583333333,4.442193131e-06
0.005604166667,4.31328408e-06
0.005625,4.251031896e-06
0.005645833333,4.205575351e-06
0.005666666667,4.263749815e-06
0.0056875,4.32559591e-06
0.005708333333,4.465289749e-06
0.005729166667,4.627462658e-06
0.00575,4.77481808e-06
0.005770833333,4.849075594e-06
0.005791666667,4.688689842e-06
0.0058125,4.355949841e-06
0.005833333333,3.827254204e-06
0.005854166667,3.333150516e-06
0.005875,2.898679895e-06
0.005895833333,2.537034561e-06
0.005916666667,2.132461987e-06
0.0059375,1.544492761e-06
0.005958333333,8.971973671e-07
0.005979166667,2.882147498e-07
0.006,1.595782351e-08
0.006020833333,5.061852093e-08
0.006041666667,2.540028561e-07
0.0060625,3.512473654e-07
0.006083333333,1.026324696e-07
0.006104166667,-3.314385424e-07
0.006125,-8.398722571e-07
0.006145833333,-1.097462359e-06
0.006166666667,-1.219007004e-06
0.0061875,-1.405290163e-06
0.006208333333,-1.925674496e-06
0.006229166667,-2.892187467e-06
0.00625,-3.996078703e-06
0.006270833333,-4.964984782e-06
0.006291666667,-5.479711035e-06
0.0063125,-5.673927262e-06
0.006333333333,-5.792720913e-06
0.006354166667,-6.098387985e-06
0.006375,-6.638699233e-06
0.006395833333,-7.114244909e-06
0.006416666667,-7.349182852e-06
0.0064375,-7.166016985e-06
0.006458333333,-6.886808478e-06
0.006479166667,-6.755649792e-06
0.0065,-7.047172858e-06
0.006520833333,-7.691498467e-06
0.006541666667,-8.392376003e-06
0.0065625,-9.001547369e-06
0.006583333333,-9.33737374e-06
0.006604166667,-9.682442396e-06
0.006625,-1.009942298e-05
0.006645833333,-1.067367612e-05
0.006666666667,-1.129186057e-05
0.0066875,-1.163126672e-05
0.006708333333,-1.171766235e-05
0.006729166667,-1.143672034e-05
0.00675,-1.107626485e-05
0.006770833333,-1.070772851e-05
0.006791666667,-1.042168788e-05
0.0068125,-1.020621221e-05
0.006833333333,-9.966521247e-06
0.006854166667,-9.772792509e-06
0.006875,-9.562558262e-06
0.006895833333,-9.472058082e-06
0.006916666667,-9.427797522e-06
0.0069375,-9.494060578e-06
0.006958333333,-9.639873497e-06
0.006979166667,-9.792956916e-06
0.007,-9.954596862e-06
0.007020833333,-9.843926819e-06
0.007041666667,-9.506473361e-06
0.0070625,-8.781695215e-06
0.007083333333,-7.920307326e-06
0.007104166667,-7.078015187e-06
0.007125,-6.33334912e-06
0.007145833333,-5.715603493e-06
0.007166666667,-4.883065685e-06
0.0071875,-3.866930001e-06
0.007208333333,-2.638023943e-06
0.007229166667,-1.581977017e-06
0.00725,-9.904407534e-07
0.007270833333,-8.353924272e-07
0.007291666667,-9.428699741e-07
0.0073125,-7.279090255e-07
0.007333333333,-1.116637023e-07
0.007354166667,9.207335552e-07
0.007375,1.882743049e-06
0.007395833333,2.505111524e-06
0.007416666667,2.870800699e-06
0.0074375,3.299471018e-06
0.007458333333,4.345139132e-06
0.007479166667,5.966459867e-06
0.0075,7.925814316e-06
0.007520833333,9.560288163e-06
0.007541666667,1.054500353e-05
0.0075625,1.100171539e-05
0.007583333333,1.128446092e-05
0.007604166667,1.195535424e-05
0.007625,1.288790918e-05
0.007645833333,1.391040314e-05
0.007666666667,1.446094211e-05
0.0076875,1.447763134e-05
0.007708333333,1.423074264e-05
0.007729166667,1.414828694e-05
0.00775,1.468830942e-05
0.007770833333,1.565024832e-05
0.007791666667,1.683754454e-05
0.0078125,1.776786303e-05
0.007833333333,1.83935299e-05
0.007854166667,1.89033417e-05
0.007875,1.946026896e-05
0.007895833333,2.029037387e-05
0.007916666667,2.105962812e-05
0.0079375,2.166910417e-05
0.007958333333,2.178446266e-05
0.007979166667,2.152340312e-05
0.008,2.102748113e-05
0.008020833333,2.044839312e-05
0.008041666667,1.998773587e-05
0.0080625,1.951695049e-05
0.008083333333,1.918382077e-05
0.008104166667,1.88543836e-05
0.008125,1.864284422e-05
0.008145833333,1.851130037e-05
0.008166666667,1.837090167e-05
0.0081875,1.833934402e-05
0.008208333333,1.82554104e-05
0.008229166667,1.835711373e-05
0.00825,1.838478602e-05
0.008270833333,1.830336259e-05
0.008291666667,1.783288644e-05
0.0083125,1.685676943e-05
0.008333333333,1.56300157e-05
0.008354166667,1.425567916e-05
0.008375,1.315973168e-05
0.008395833333,1.214643908e-05
0.008416666667,1.109620825e-05
0.0084375,9.766379662e-06
0.008458333333,8.129369235e-06
0.008479166667,6.679056696e-06
0.0085,5.618200703e-06
0.008520833333,5.295100436e-06
0.008541666667,5.224831057e-06
0.0085625,5.015052011e-06
0.008583333333,4.229367278e-06
0.008604166667,2.914815013e-06
0.008625,1.580033768e-06
0.008645833333,4.889666911e-07
0.008666666667,-1.662934466e-07
0.0086875,-9.775404806e-07
0.008708333333,-2.31585841e-06
0.008729166667,-4.418072422e-06
0.00875,-6.939286777e-06
0.008770833333,-9.112210137e-06
0.008791666667,-1.067588892e-05
0.0088125,-1.145350234e-05
0.008833333333,-1.216676355e-05
0.008854166667,-1.311062351e-05
0.008875,-1.447343038e-05
0.008895833333,-1.587853512e-05
0.008916666667,-1.67530452e-05
0.0089375,-1.709644494e-05
0.008958333333,-1.701914698e-05
0.008979166667,-1.730203621e-05
0.009,-1.818835881e-05
0.009020833333,-1.971474558e-05
0.009041666667,-2.149110514e-05
0.0090625,-2.296374078e-05
0.009083333333,-2.419571138e-05
0.009104166667,-2.513984509e-05
0.009125,-2.632264477e-05
0.009145833333,-2.765430872e-05
0.009166666667,-2.90496846e-05
0.0091875,-3.01554519e-05
0.009208333333,-3.066851059e-05
0.009229166667,-3.075427958e-05
0.00925,-3.045467565e-05
0.009270833333,-3.01933178e-05
0.009291666667,-2.997540651e-05
0.0093125,-2.98851337e-05
0.009333333333,-2.988816414e-05
0.009354166667,-2.987921653e-05
0.009375,-2.998728996e-05
0.009395833333,-3.004244354e-05
0.009416666667,-3.025247861e-05
0.0094375,-3.047235987e-05
0.009458333333,-3.090560131e-05
0.009479166667,-3.143837603e-05
0.0095,-3.190141797e-05
0.009520833333,-3.207693226e-05
0.009541666667,-3.154499427e-05
0.0095625,-3.048614053e-05
0.009583333333,-2.899426909e-05
0.009604166667,-2.761767246e-05
0.009625,-2.652995317e-05
0.009645833333,-2.553219929e-05
0.009666666667,-2.435955867e-05
0.0096875,-2.254122228e-05
0.009708333333,-2.04644457e-05
0.009729166667,-1.849891669e-05
0.00975,-1.738123501e-05
0.009770833333,-1.709913886e-05
0.009791666667,-1.71536758e-05
0.0098125,-1.679593697e-05
0.009833333333,-1.545624582e-05
0.009854166667,-1.351751598e-05
0.009875,-1.151505694e-05
0.009895833333,-1.019703905e-05
0.009916666667,-9.376667549e-06
0.0099375,-8.378747225e-06
0.009958333333,-6.472629138e-06
0.009979166667,-3.296280738e-06
0.01,5.510895335e-06
0.01002083333,2.028702693e-05
0.01004166667,2.623181717e-05
0.0100625,2.487918573e-05
0.01008333333,1.952719322e-05
0.01010416667,1.73784847e-05
0.010125,1.565030288e-05
0.01014583333,1.889347004e-05
0.01016666667,1.821925798e-05
0.0101875,1.679476918e-05
0.01020833333,1.283789243e-05
0.01022916667,1.261124453e-05
0.01025,1.321625587e-05
0.01027083333,1.556324605e-05
0.01029166667,1.626533412e-05
0.0103125,1.644440817e-05
0.01033333333,1.496871846e-05
0.01035416667,1.734382749e-05
0.010375,2.034234058e-05
0.01039583333,2.84650323e-05
0.01041666667,3.242442835e-05
0.0104375,3.590057167e-05
0.01045833333,3.723196642e-05
0.01047916667,4.172390982e-05
0.0105,4.539685688e-05
0.01052083333,5.038882227e-05
0.01054166667,5.087916361e-05
0.0105625,4.86422432e-05
0.01058333333,4.359093509e-05
0.01060416667,3.984229988e-05
0.010625,3.58740981e-05
0.01064583333,3.817927427e-05
0.01066666667,3.696646309e-05
0.0106875,3.699075023e-05
0.01070833333,3.096133514e-05
0.01072916667,2.972564471e-05
0.01075,2.71894678e-05
0.01077083333,2.870697244e-05
0.01079166667,2.985902211e-05
0.0108125,3.134002691e-05
0.01083333333,3.155995e-05
0.01085416667,3.591836867e-05
0.010875,3.927575381e-05
0.01089583333,4.601302498e-05
0.01091666667,4.429318506e-05
0.0109375,4.437054304e-05
0.01095833333,3.761883272e-05
0.01097916667,3.801473213e-05
0.011,3.324649151e-05
0.01102083333,3.151879719e-05
0.01104166667,2.75467155e-05
0.0110625,2.161796874e-05
0.01108333333,1.611984226e-05
0.01110416667,1.646706733e-05
0.011125,1.463271656e-05
0.01114583333,1.758767394e-05
0.01116666667,1.471269388e-05
0.0111875,1.524951858e-05
0.01120833333,9.432238585e-06
0.01122916667,1.165741287e-05
0.01125,9.457556189e-06
0.01127083333,1.212484858e-05
0.01129166667,8.734148651e-06
0.0113125,6.842597941e-06
0.01133333333,3.283805427e-06
0.01135416667,8.169638022e-06
0.011375,1.11483987e-05
0.01139583333,1.694271668e-05
0.01141666667,1.171993335e-05
0.0114375,2.625285106e-06
0.01145833333,-1.422455625e-05
0.01147916667,-1.841173071e-05
0.0115,-2.528727964e-05
0.01152083333,-2.113977462e-05
0.01154166667,-2.41307207e-05
0.0115625,-2.682772902e-05
0.01158333333,-3.40284314e-05
0.01160416667,-3.583764192e-05
0.011625,-3.327535524e-05
0.01164583333,-2.465830039e-05
0.01166666667,-2.333708471e-05
0.0116875,-2.21418959e-05
0.01170833333,-2.894109821e-05
0.01172916667,-2.364545071e-05
0.01175,-2.176517228e-05
0.01177083333,-1.157900442e-05
0.01179166667,-1.179105311e-05
0.0118125,-1.435896411e-05
0.01183333333,-2.507218232e-05
0.01185416667,-3.050524901e-05
0.011875,-3.631752406e-05
0.01189583333,-3.922345786e-05
0.01191666667,-4.681606151e-05
0.0119375,-5.331591092e-05
0.01195833333,-6.652023876e-05
0.01197916667,-6.311212201e-05
0.012,-6.402187137e-05
0.01202083333,-4.827478915e-05
0.01204166667,-4.394362259e-05
0.0120625,-4.165552673e-05
0.01208333333,-5.204431e-05
0.01210416667,-4.748285937e-05
0.012125,-3.601818025e-05
0.01214583333,-2.216450048e-05
0.01216666667,-1.633995998e-05
0.0121875,-8.197721399e-06
0.01220833333,-1.476522993e-05
0.01222916667,-1.465859714e-05
0.01225,-2.536982902e-05
0.01227083333,-2.535456952e-05
0.01229166667,-3.842051592e-05
0.0123125,-4.74109911e-05
0.01233333333,-7.053583977e-05
0.01235416667,-6.874377868e-05
0.012375,-5.686606164e-05
0.01239583333,-3.599655975e-05
0.01241666667,-2.135431896e-05
0.0124375,-8.804809113e-06
0.01245833333,-1.855680603e-05
0.01247916667,-2.650351234e-05
0.0125,-3.346310405e-05
0.01252083333,-2.463876444e-05
0.01254166667,-1.989702105e-05
0.0125625,8.396191333e-07
0.01258333333,3.935198038e-06
0.01260416667,1.72409782e-05
0.012625,2.339762432e-05
0.01264583333,2.736498936e-05
0.01266666667,1.68489114e-05
0.0126875,4.746338163e-06
0.01270833333,-1.919766146e-05
0.01272916667,-3.384821321e-05
0.01275,-4.152195106e-05
0.01277083333,-2.04951848e-05
0.01279166667,-1.192737909e-05
0.0128125,5.052567758e-06
0.01283333333,4.562957656e-06
0.01285416667,4.334871846e-06
0.012875,6.013994607e-06
0.01289583333,2.274873077e-05
0.01291666667,3.131123594e-05
0.0129375,4.684702435e-05
0.01295833333,4.90019811e-05
0.01297916667,5.168469215e-05
0.013,4.299840293e-05
0.01302083333,4.789392551e-05
0.01304166667,4.123101826e-05
0.0130625,4.235219603e-05
0.01308333333,2.612665594e-05
0.01310416667,2.076957207e-05
0.013125,1.620270086e-05
0.01314583333,1.967113712e-05
0.01316666667,1.10148776e-05
0.0131875,9.619217963e-06
0.01320833333,-6.895217666e-06
0.01322916667,-5.526238965e-06
0.01325,1.32515961e-05
0.01327083333,3.219108839e-05
0.01329166667,4.452147186e-05
0.0133125,7.404304051e-05
0.01333333333,5.715192674e-05
0.01335416667,5.920745025e-05
0.013375,5.804741522e-05
0.01339583333,5.947709724e-05
0.01341666667,5.302357749e-05
0.0134375,4.860702757e-05
0.01345833333,2.465878424e-05
0.01347916667,2.464249337e-05
0.0135,2.289600343e-05
0.01352083333,3.061203097e-05
0.01354166667,1.926815639e-05
0.0135625,1.037346192e-05
0.01358333333,-1.692968544e-05
0.01360416667,-2.191923704e-05
0.013625,-2.113670962e-05
0.01364583333,1.57323484e-06
0.01366666667,1.087663986e-05
0.0136875,2.231179133e-05
0.01370833333,1.641891504e-05
0.01372916667,2.625423986e-05
0.01375,3.171432036e-05
0.01377083333,5.268771565e-05
0.01379166667,5.649207742e-05
0.0138125,5.838906509e-05
0.01383333333,4.516754416e-05
0.01385416667,3.735640348e-05
0.013875,2.306367605e-05
0.01389583333,3.910063242e-05
0.01391666667,3.846033724e-05
0.0139375,2.772489825e-05
0.01395833333,-6.655264315e-06
0.01397916667,-4.743933823e-05
0.014,-8.579608402e-05
0.01402083333,-7.251573697e-05
0.01404166667,-6.09970084e-05
0.0140625,-4.671098577e-05
0.01408333333,-4.909516429e-05
0.01410416667,-4.173938214e-05
0.014125,-3.799739716e-05
0.01414583333,5.614826478e-06
0.01416666667,3.911484237e-05
0.0141875,6.051526725e-05
0.01420833333,5.52893398e-05
0.01422916667,3.199206549e-05
0.01425,-6.13282009e-06
0.01427083333,-9.709783626e-07
0.01429166667,3.191049473e-06
0.0143125,1.017507748e-05
0.01433333333,7.4446707e-06
0.01435416667,1.128432814e-05
0.014375,-1.639931179e-05
0.01439583333,-3.032276254e-05
0.01441666667,-6.265104457e-05
0.0144375,-7.269624621e-05
0.01445833333,-8.81330925e-05
0.01447916667,-8.474034257e-05
0.0145,-0.0001028307015
0.01452083333,-8.443772094e-05
0.01454166667,-7.478859334e-05
0.0145625,-6.117740122e-05
0.01458333333,-4.459951742e-05
0.01460416667,-1.41543369e-05
0.014625,1.060629256e-05
0.01464583333,6.839472189e-05
0.01466666667,8.848940342e-05
0.0146875,9.785476868e-05
0.01470833333,6.42777668e-05
0.01472916667,2.346606016e-05
0.01475,-2.618117287e-05
0.01477083333,-4.182194971e-05
0.01479166667,-5.747680189e-05
0.0148125,-9.415488603e-05
0.01483333333,-0.0001510313596
0.01485416667,-0.0001516757475
0.014875,-9.590842092e-05
0.01489583333,1.742526365e-05
0.01491666667,0.0001342591422
0.0149375,0.00020755062
0.01495833333,0.0001562974066
0.01497916667,3.868503336e-05
0.015,-0.0001298554853
0.01502083333,-0.0002130088978
0.01504166667,-0.0002026095899
0.0150625,-0.0001029195701
0.01508333333,2.013091944e-05
0.01510416667,0.0001274261886
0.015125,0.0001372570114
0.01514583333,0.0001165590584
0.01516666667,5.910742402e-05
0.0151875,3.155387094e-05
0.01520833333,1.254935341e-06
0.01522916667,-1.719023385e-05
0.01525,-6.231973384e-05
0.01527083333,-7.026966341e-05
0.01529166667,-7.186314906e-05
0.0153125,-4.75142806e-05
0.01533333333,-2.476574809e-05
0.01535416667,4.417835044e-06
0.015375,-9.557192243e-06
0.01539583333,1.729685573e-05
0.01541666667,3.728830052e-05
0.0154375,9.341431723e-05
0.01545833333,0.0001147012081
0.01547916667,0.0001371902035
0.0155,0.0001127693031
0.01552083333,6.465458137e-05
0.01554166667,3.283682599e-05
0.0155625,1.768779475e-05
0.01558333333,6.895767001e-06
0.01560416667,1.988084114e-05
0.015625,-7.429152902e-06
0.01564583333,-1.067943958e-05
0.01566666667,-3.937380825e-05
0.0156875,-5.12206243e-05
0.01570833333,-5.434999912e-05
0.01572916667,-2.751519969e-05
0.01575,-2.052854506e-05
0.01577083333,-1.162825356e-07
0.01579166667,-9.85339102e-06
0.0158125,-1.668640834e-06
0.01583333333,1.684371455e-05
0.01585416667,5.497756138e-05
0.015875,9.538629092e-05
0.01589583333,0.0001288899948
0.01591666667,0.0001358254376
0.0159375,0.0001472668955
0.01595833333,0.0001020917771
0.01597916667,8.374873141e-05
0.016,3.647015546e-05
0.01602083333,6.567557648e-06
0.01604166667,-3.339831528e-05
0.0160625,-2.691394729e-05
0.01608333333,-5.189889634e-05
0.01610416667,-7.770630327e-05
0.016125,-0.0001133885962
0.01614583333,-0.0001324646728
0.01616666667,-0.0001395417494
0.0161875,-0.0001420512999
0.01620833333,-0.0001286374609
0.01622916667,-5.393995161e-05
0.01625,1.875662929e-05
0.01627083333,8.410083683e-05
0.01629166667,9.883900202e-05
0.0163125,0.0001064229291
0.01633333333,8.060643449e-05
0.01635416667,9.973210399e-05
0.016375,9.864071762e-05
0.01639583333,8.809328574e-05
0.01641666667,6.592028512e-05
0.0164375,5.060397962e-05
0.01645833333,-2.734221198e-06
0.01647916667,-7.401265611e-05
0.0165,-0.0001059625647
0.01652083333,-9.448404307e-05
0.01654166667,-0.0001104278708
0.0165625,-0.0001163715206
0.01658333333,-0.000180596573
0.01660416667,-0.0001772991382
0.016625,-0.0001928647835
0.01664583333,-0.0001338010334
0.01666666667,-6.524673518e-05
0.0166875,-7.753587852e-07
0.01670833333,2.066480374e-05
0.01672916667,8.881823305e-06
0.01675,3.772999116e-05
0.01677083333,0.0001152316763
0.01679166667,0.0001360811875
0.0168125,0.0001513995085
0.01683333333,0.0001043614029
0.01685416667,2.595960177e-05
0.016875,-6.007202683e-05
0.01689583333,-6.659196515e-05
0.01691666667,-6.838187255e-05
0.0169375,-3.665784243e-05
0.01695833333,-5.143920498e-05
0.01697916667,-8.065922157e-05
0.017,-0.0001549241715
0.01702083333,-0.0001665773016
0.01704166667,-0.0001459622727
0.0170625,-0.0001154505226
0.01708333333,-8.582638111e-05
0.01710416667,-6.732124893e-05
0.017125,-6.01102729e-05
0.01714583333,-1.298104416e-05
0.01716666667,9.49924106e-06
0.0171875,7.41493277e-05
0.01720833333,9.289346053e-05
0.01722916667,0.0001135917992
0.01725,8.77552593e-05
0.01727083333,7.449999976e-05
0.01729166667,3.465083864e-05
0.0173125,-1.032715591e-05
0.01733333333,-7.113469474e-05
0.01735416667,-0.0001056971596
0.017375,-0.0001050052961
0.01739583333,-5.953421714e-05
0.01741666667,2.872340519e-05
0.0174375,0.0001005217127
0.01745833333,8.088083268e-05
0.01747916667,3.197921615e-05
0.0175,-4.458352487e-05
0.01752083333,-0.0001106333584
0.01754166667,-0.0001073784661
0.0175625,9.388932085e-07
0.01758333333,7.146171993e-05
0.01760416667,0.0001179795217
0.017625,0.0001379516179
0.01764583333,0.000104525112
0.01766666667,5.157129635e-05
0.0176875,1.720172622e-05
0.01770833333,-1.289425927e-05
0.01772916667,-4.183698547e-05
0.01775,-3.814804586e-05
0.01777083333,-6.840906281e-06
0.01779166667,-2.388096618e-05
0.0178125,3.225675755e-05
0.01783333333,4.979151709e-05
0.01785416667,0.0001086261473
0.017875,8.626723138e-05
0.01789583333,0.0001141091343
0.01791666667,0.0001129768789
0.0179375,0.0001263201411
0.01795833333,0.000125229446
0.01797916667,0.0001248473709
0.018,8.611292287e-05
0.01802083333,4.860882837e-05
0.01804166667,1.159593739e-05
0.0180625,4.924163295e-05
0.01808333333,5.254552889e-05
0.01810416667,4.952365271e-05
0.018125,-3.655975524e-05
0.01814583333,-5.45988878e-05
0.01816666667,-6.038146967e-05
0.0181875,-5.242575935e-05
0.01820833333,-3.544748324e-05
0.01822916667,-3.639623174e-06
0.01825,1.373064151e-05
0.01827083333,1.243864972e-05
0.01829166667,4.851069752e-05
0.0183125,7.949097198e-05
0.01833333333,0.0001290226646
0.01835416667,0.0001864264777
0.018375,0.0001700543362
0.01839583333,0.0001790979295
0.01841666667,0.0001483976957
0.0184375,0.0001346087229
0.01845833333,8.299241017e-05
0.01847916667,6.283631956e-05
0.0185,7.784418995e-05
0.01852083333,3.045654375e-05
0.01854166667,-3.902119352e-05
0.0185625,-0.0001234706433
0.01858333333,-0.000148094201
0.01860416667,-0.0001543718972
0.018625,-0.0001711053628
0.01864583333,-0.0001179121318
0.01866666667,-0.0001208651229
0.0186875,-9.495922131e-05
0.01870833333,-0.0001063378004
0.01872916667,-1.881019307e-05
0.01875,5.503950524e-05
0.01877083333,0.0001578271913
0.01879166667,0.0002088593465
0.0188125,0.000197935311
0.01883333333,0.0001613196509
0.01885416667,0.0001131745012
0.018875,8.655923011e-05
0.01889583333,8.330186392e-05
0.01891666667,5.949592378e-05
0.0189375,3.568879401e-05
0.01895833333,-7.870007539e-05
0.01897916667,-0.0001527585555
0.019,-0.00024652711
0.01902083333,-0.0002226004435
0.01904166667,-0.0002414848568
0.0190625,-0.0002150517103
0.01908333333,-0.0001964953844
0.01910416667,-0.0001916130277
0.019125,-0.0001711184887
0.01914583333,-0.0001110530866
0.01916666667,6.949630915e-07
0.0191875,7.053636364e-05
0.01920833333,0.0001404376817
0.01922916667,0.0002482074196
0.01925,0.0002007602452
0.01927083333,0.0001510514267
0.01929166667,4.885476665e-05
0.0193125,-4.638790779e-05
0.01933333333,-0.0001157345032
0.01935416667,-0.0001404903451
0.019375,-0.0001763776818
0.01939583333,-0.0001908485428
0.01941666667,-0.0001965599949
0.0194375,-0.0002038493694
0.01945833333,-0.0002207286016
0.01947916667,-0.0001559192169
0.0195,-7.359492156e-05
0.01952083333,-3.125045623e-06
0.01954166667,-5.857139695e-05
0.0195625,-0.0001261208672
0.01958333333,-0.0002093803487
0.01960416667,-0.0001564547565
0.019625,-3.831868526e-06
0.01964583333,0.0002093367511
0.01966666667,0.0003304300481
0.0196875,0.000277127896
0.01970833333,0.0001177801532
0.01972916667,-1.501633415e-05
0.01975,-8.046554285e-05
0.01977083333,-6.470114386e-06
0.01979166667,-3.864099926e-05
0.0198125,-0.0001178145758
0.01983333333,-0.0003443349269
0.01985416667,-0.0005557801342
0.019875,-0.0005756034516
0.01989583333,-0.0003295217757
0.01991666667,0.0001161770197
0.0199375,0.0005629141233
0.01995833333,0.0007075619069
0.01997916667,0.0003855135292
0.02,-0.0001551001478
0.02002083333,-0.000492935942
0.02004166667,-0.0005430589081
0.0200625,-0.0002690183464
0.02008333333,7.613931666e-05
0.02010416667,0.0002974922827
0.020125,0.0002763634839
0.02014583333,0.0001059161441
0.02016666667,-0.0001272600348
0.0201875,-0.0002362140076
0.02020833333,-0.0002055985096
0.02022916667,-0.0001441259228
0.02025,-8.819484356e-05
0.02027083333,-0.0001374544809
0.02029166667,-0.0002900357067
0.0203125,-0.0003559300676
0.02033333333,-0.0003533557174
0.02035416667,-0.0002096732787
0.020375,-5.664300988e-05
0.02039583333,9.840462735e-05
0.02041666667,9.625690291e-05
0.0204375,0.0001031185748
0.02045833333,0.000112952941
0.02047916667,8.199876174e-05
0.0205,7.780907617e-05
0.02052083333,5.565787433e-05
0.02054166667,3.458338324e-05
0.0205625,-2.777723421e-05
0.02058333333,-9.318164666e-05
0.02060416667,-0.0001668980112
0.020625,-0.000178857299
0.02064583333,-0.0001725363254
0.02066666667,-0.0002358658967
0.0206875,-0.0002486617304
0.02070833333,-0.0003546424559
0.02072916667,-0.0003940050665
0.02075,-0.0004031407007
0.02077083333,-0.0003815175151
0.02079166667,-0.0002876161598
0.0208125,-0.0001720399014
0.02083333333,-1.939931826e-05
0.02085416667,0.0001168473245
0.020875,0.0001693227823
0.02089583333,0.0001781090978
0.02091666667,0.0001132480247
0.0209375,0.0001376558066
0.02095833333,0.0001635215449
0.02097916667,0.0001012081339
0.021,-7.088201528e-05
0.02102083333,-0.0002543058363
0.02104166667,-0.0004270042409
0.0210625,-0.0004720553989
0.02108333333,-0.0004458611947
0.02110416667,-0.0004262502771
0.021125,-0.0004321748856
0.02114583333,-0.0004796774592
0.02116666667,-0.0006412207149
0.0211875,-0.0007967710262
0.02120833333,-0.0007783568581
0.02122916667,-0.0005853916518
0.02125,-0.0002952080395
0.02127083333,-1.369530219e-05
0.02129166667,9.975145804e-05
0.0213125,7.610421744e-05
0.02133333333,4.813438863e-05
0.02135416667,7.263448788e-05
0.021375,9.981243056e-05
0.02139583333,0.0001366414654
0.02141666667,6.146728992e-08
0.0214375,-0.0002366916015
0.02145833333,-0.0004866441595
0.02147916667,-0.0006802518037
0.0215,-0.0007267367328
0.02152083333,-0.0007210876793
0.02154166667,-0.0007412038394
0.0215625,-0.0007717169356
0.02158333333,-0.0008200741722
0.02160416667,-0.0008130787173
0.021625,-0.0007076950278
0.02164583333,-0.0005411882885
0.02166666667,-0.0005069599138
0.0216875,-0.0004926945549
0.02170833333,-0.0005154161481
0.02172916667,-0.000443204277
0.02175,-0.0002673036943
0.02177083333,-8.734178846e-05
0.02179166667,6.916964776e-05
0.0218125,4.356450518e-05
0.02183333333,-0.0001680700516
0.02185416667,-0.0003715773637
0.021875,-0.000516864704
0.02189583333,-0.0004637349339
0.02191666667,-0.0004450956185
0.0219375,-0.0005459210952
0.02195833333,-0.0006748310407
0.02197916667,-0.0008543813601
0.022,-0.00100137305
0.02202083333,-0.0008832117892
0.02204166667,-0.0007327725179
0.0220625,-0.0007151996251
0.02208333333,-0.0007908951957
0.02210416667,-0.0009498194559
0.022125,-0.001015959075
0.02214583333,-0.0007612523623
0.02216666667,-0.00052562356
0.0221875,-0.0003185131936
0.02220833333,-0.0002952504728
0.02222916667,-0.0003198535123
0.02225,-0.0003120686451
0.02227083333,-0.0003319677489
0.02229166667,-0.0004426222004
0.0223125,-0.0006743699778
0.02233333333,-0.0009376645321
0.02235416667,-0.001134951832
0.022375,-0.001062249066
0.02239583333,-0.0006587820826
0.02241666667,-0.0002634032571
0.0224375,-5.754287122e-05
0.02245833333,-0.0003015381226
0.02247916667,-0.0009033728275
0.0225,-0.001489653485
0.02252083333,-0.001702361042
0.02254166667,-0.001506135566
0.0225625,-0.001026199781
0.02258333333,-0.0006062516477
0.02260416667,-0.0004081203078
0.022625,-0.0005204669433
0.02264583333,-0.0006579941255
0.02266666667,-0.0007241152925
0.0226875,-0.000704537495
0.02270833333,-0.0007907407125
0.02272916667,-0.0009581432678
0.02275,-0.001121479669
0.02277083333,-0.001215874683
0.02279166667,-0.001155776437
0.0228125,-0.0009763863636
0.02283333333,-0.0007827991503
0.02285416667,-0.0007541910745
0.022875,-0.0009198393673
0.02289583333,-0.0009681368829
0.02291666667,-0.0009165848023
0.0229375,-0.0007698296686
0.02295833333,-0.0007064215606
0.02297916667,-0.0007741068257
0.023,-0.001013695612
0.02302083333,-0.001178508857
0.02304166667,-0.001204426633
0.0230625,-0.001026582788
0.02308333333,-0.0008460573154
0.02310416667,-0.0008626730414
0.023125,-0.001098836772
0.02314583333,-0.00130103901
0.02316666667,-0.001439681859
0.0231875,-0.001496167155
0.02320833333,-0.001303329831
0.02322916667,-0.001221965533
0.02325,-0.001291273744
0.02327083333,-0.00135492906
0.02329166667,-0.001329669612
0.0233125,-0.001169858268
0.02333333333,-0.0009377278038
0.02335416667,-0.0006793803768
0.023375,-0.0005799099454
0.02339583333,-0.0005887831212
0.02341666667,-0.0007532689488
0.0234375,-0.0009303459665
0.02345833333,-0.0009382439312
0.02347916667,-0.0009949947707
0.0235,-0.001081146882
0.02352083333,-0.001257877564
0.02354166667,-0.001449852716
0.0235625,-0.001527297543
0.02358333333,-0.001530776499
0.02360416667,-0.001468051225
0.023625,-0.00135967508
0.02364583333,-0.001298073214
0.02366666667,-0.001306305639
0.0236875,-0.001253869501
0.02370833333,-0.001305257669
0.02372916667,-0.00125615974
0.02375,-0.001178789767
0.02377083333,-0.001034578774
0.02379166667,-0.0009206882096
0.0238125,-0.0007355206762
0.02383333333,-0.0008097855607
0.02385416667,-0.0008174413233
0.023875,-0.0008322724607
0.02389583333,-0.0009474370163
0.02391666667,-0.001160932239
0.0239375,-0.001407671603
0.02395833333,-0.001653036801
0.02397916667,-0.001807833556
0.024,-0.001862379839
0.02402083333,-0.001824868843
0.02404166667,-0.001741375541
0.0240625,-0.001702085137
0.02408333333,-0.001737403451
0.02410416667,-0.001639186637
0.024125,-0.001417128951
0.02414583333,-0.001168946852
0.02416666667,-0.0009631327121
0.0241875,-0.0008546742029
0.02420833333,-0.001000735676
0.02422916667,-0.001238933299
0.02425,-0.001383100636
0.02427083333,-0.00134593551
0.02429166667,-0.001171085751
0.0243125,-0.001050726161
0.02433333333,-0.001088817022
0.02435416667,-0.001285329228
0.024375,-0.001549933571
0.02439583333,-0.001764397486
0.02441666667,-0.001898714923
0.0244375,-0.002027744194
0.02445833333,-0.002147413557
0.02447916667,-0.002269070363
0.0245,-0.002306775423
0.02452083333,-0.002091808943
0.02454166667,-0.001580283395
0.0245625,-0.001095077489
0.02458333333,-0.0008444851846
0.02460416667,-0.0007721440634
0.024625,-0.0008600904257
0.02464583333,-0.0009939080337
0.02466666667,-0.001007443527
0.0246875,-0.0010065065
0.02470833333,-0.000981196994
0.02472916667,-0.001108776894
0.02475,-0.00128572667
0.02477083333,-0.001366563374
0.02479166667,-0.001545294421
0.0248125,-0.001751556643
0.02483333333,-0.00207893271
0.02485416667,-0.002338579856
0.024875,-0.002421197249
0.02489583333,-0.002076483332
0.02491666667,-0.001470925286
0.0249375,-0.001034400193
0.02495833333,-0.0009121241164
0.02497916667,-0.001267539337
0.025,-0.001817706856
0.02502083333,-0.00203625788
0.02504166667,-0.00175098842
0.0250625,-0.001146221999
0.02508333333,-0.0005832174211
0.02510416667,-0.000451049651
0.025125,-0.0007258634432
0.02514583333,-0.0009350824403
0.02516666667,-0.0009972194675
0.0251875,-0.0009100176394
0.02520833333,-0.000832675898
0.02522916667,-0.001249630703
0.02525,-0.001913624816
0.02527083333,-0.002534460742
0.02529166667,-0.002749771345
0.0253125,-0.002562762704
0.02533333333,-0.002040127292
0.02535416667,-0.001691618469
0.025375,-0.001550047426
0.02539583333,-0.001517113764
0.02541666667,-0.001386411022
0.0254375,-0.001051387168
0.02545833333,-0.0006582536735
0.02547916667,-0.0003815648379
0.0255,-0.0005058197421
0.02552083333,-0.000838868611
0.02554166667,-0.0009709470905
0.0255625,-0.0009949051309
0.02558333333,-0.0006941509782
0.02560416667,-0.0006194810849
0.025625,-0.0009662120137
0.02564583333,-0.001409759512
0.02566666667,-0.001841972815
0.0256875,-0.001866429346
0.02570833333,-0.0015989854
0.02572916667,-0.001462564222
0.02575,-0.00161601603
0.02577083333,-0.001838859636
0.02579166667,-0.002064948902
0.0258125,-0.001877504634
0.02583333333,-0.001263598795
0.02585416667,-0.0005485608708
0.025875,-6.922264583e-05
0.02589583333,9.538029553e-05
0.02591666667,-8.002819959e-05
0.0259375,-0.000304570247
0.02595833333,-0.0001950523001
0.02597916667,-0.0001564036938
0.026,-0.0003997393651
0.02602083333,-0.000682578946
0.02604166667,-0.001070614788
0.0260625,-0.001402146532
0.02608333333,-0.00133037148
0.02610416667,-0.001169328927
0.026125,-0.0009798553074
0.02614583333,-0.001097819069
0.02616666667,-0.001414640341
0.0261875,-0.001624571858
0.02620833333,-0.001419032458
0.02622916667,-0.00106012274
0.02625,-0.0005676017608
0.02627083333,-0.0003343881981
0.02629166667,-0.0002668584348
0.0263125,-0.0003247633576
0.02633333333,-2.41274829e-05
0.02635416667,0.0003871208755
0.026375,0.0006708593573
0.02639583333,0.0005484110443
0.02641666667,0.0001357390429
0.0264375,-0.0005527625326
0.02645833333,-0.0009962538024
0.02647916667,-0.001171002048
0.0265,-0.001015334157
0.02652083333,-0.0008982733125
0.02654166667,-0.0009705406846
0.0265625,-0.001322497148
0.02658333333,-0.001609208528
0.02660416667,-0.001586665167
0.026625,-0.001410508412
0.02664583333,-0.001072984654
0.02666666667,-0.0007889381377
0.0266875,-0.0006838290719
0.02670833333,-0.000525709358
0.02672916667,-0.000189102313
0.02675,0.0002419998054
0.02677083333,0.000737582217
0.02679166667,0.0009998127352
0.0268125,0.0008740508347
0.02683333333,0.0003615462338
0.02685416667,-0.0001559032535
0.026875,-0.0006083960179
0.02689583333,-0.0007782563334
0.02691666667,-0.0008523784345
0.0269375,-0.0009095411515
0.02695833333,-0.001008245861
0.02697916667,-0.001337659312
0.027,-0.001698373933
0.02702083333,-0.0017965429
0.02704166667,-0.001478242106
0.0270625,-0.001097041881
0.02708333333,-0.0004150323221
0.02710416667,0.0001676144311
0.027125,0.0005136634572
0.02714583333,0.0005514505901
0.02716666667,0.0004269684432
0.0271875,0.0003949507663
0.02720833333,0.0004316389386
0.02722916667,0.000656616874
0.02725,0.001108210767
0.02727083333,0.001261245343
0.02729166667,0.001118166256
0.0273125,0.000433200039
0.02733333333,-0.00020631199
0.02735416667,-0.0007756903651
0.027375,-0.0006986047956
0.02739583333,-0.0004157156218
0.02741666667,-1.014539157e-05
0.0274375,-2.872635378e-06
0.02745833333,-0.0003920603485
0.02747916667,-0.0008960439591
0.0275,-0.0009475153638
0.02752083333,-0.000509297708
0.02754166667,0.0005917528179
0.0275625,0.001501966617
0.02758333333,0.002064883476
0.02760416667,0.00192287832
0.027625,0.001416138606
0.02764583333,0.001059773727
0.02766666667,0.001077228691
0.0276875,0.001242786413
0.02770833333,0.001428925199
0.02772916667,0.00127745443
0.02775,0.001033069915
0.02777083333,0.0006905241753
0.02779166667,0.0003384783631
0.0278125,9.825779125e-05
0.02783333333,0.0001067327103
0.02785416667,0.0003234947217
0.027875,0.000703884114
0.02789583333,0.001300198841
0.02791666667,0.001808990957
0.0279375,0.002042325679
0.02795833333,0.002202685457
0.02797916667,0.001892470871
0.028,0.001726218383
0.02802083333,0.002144783502
0.02804166667,0.002718494507
0.0280625,0.003161373083
0.02808333333,0.003231822513
0.02810416667,0.002786374185
0.028125,0.002379097976
0.02814583333,0.002167890314
0.02816666667,0.002372051124
0.0281875,0.00269920053
0.02820833333,0.002737043425
0.02822916667,0.001999882981
0.02825,0.001086096512
0.02827083333,0.0006169726839
0.02829166667,0.001122322748
0.0283125,0.002426561201
0.02833333333,0.003812521696
0.02835416667,0.004232415929
0.028375,0.004103082698
0.02839583333,0.003194567515
0.02841666667,0.002746588551
0.0284375,0.00294427108
0.02845833333,0.003655276261
0.02847916667,0.00406531943
0.0285,0.004093764815
0.02852083333,0.00359691726
0.02854166667,0.00305369636
0.0285625,0.00277008838
0.02858333333,0.003066395409
0.02860416667,0.003596778261
0.028625,0.004195414018
0.02864583333,0.004928106908
0.02866666667,0.005436843727
0.0286875,0.005898913834
0.02870833333,0.005686753429
0.02872916667,0.004571101163
0.02875,0.003523987252
0.02877083333,0.00313753658
0.02879166667,0.003399993759
0.0288125,0.004535260145
0.02883333333,0.005643562414
0.02885416667,0.005733775906
0.028875,0.005035816226
0.02889583333,0.004035159945
0.02891666667,0.003084683092
0.0289375,0.002892476274
0.02895833333,0.003545215819
0.02897916667,0.003550601425
0.029,0.002973108552
0.02902083333,0.00308409892
0.02904166667,0.003533459036
0.0290625,0.004815501627
0.02908333333,0.006144837476
0.02910416667,0.007142911665
0.029125,0.007262329571
0.02914583333,0.007137231994
0.02916666667,0.007198163308
0.0291875,0.007198618259
0.02920833333,0.007562566083
0.02922916667,0.007061494049
0.02925,0.006064195186
0.02927083333,0.005353506189
0.02929166667,0.005784018897
0.0293125,0.006930483971
0.02933333333,0.007935252972
0.02935416667,0.006790199317
0.029375,0.003955559805
0.02939583333,0.0005998979323
0.02941666667,-0.0004501109943
0.0294375,0.000565037597
0.02945833333,0.003554221708
0.02947916667,0.005418468267
0.0295,0.005136554595
0.02952083333,0.003684893018
0.02954166667,0.002678087447
0.0295625,0.004834038205
0.02958333333,0.009387214668
0.02960416667,0.01335986331
0.029625,0.01383655518
0.02964583333,0.01023256592
0.02966666667,0.006621013861
0.0296875,0.004245406482
0.02970833333,0.007370738313
0.02972916667,0.01025052462
0.02975,0.01279149204
0.02977083333,0.01073510572
0.02979166667,0.006910997909
0.0298125,0.005071179476
0.02983333333,0.007829084992
0.02985416667,0.013182492
0.029875,0.01771951094
0.02989583333,0.01668698899
0.02991666667,0.007821274921
0.0299375,-0.00199027732
0.02995833333,-0.007221171632
0.02997916667,-0.003655003384
0.03,0.07768192887
0.03002083333,0.08233407885
0.03004166667,0.07815723121
0.0300625,0.06915348023
0.03008333333,0.06082303822
0.03010416667,0.06025276333
0.030125,0.06557897478
0.03014583333,0.07249767333
0.03016666667,0.07717246562
0.0301875,0.0770176053
0.03020833333,0.0745267719
0.03022916667,0.0734718889
0.03025,0.07716514915
0.03027083333,0.0815455094
0.03029166667,0.086298123
0.0303125,0.08553950489
0.03033333333,0.08327788115
0.03035416667,0.08075059205
0.030375,0.08230054379
0.03039583333,0.08736878633
0.03041666667,0.09347128123
0.0304375,0.09738621116
0.03045833333,0.09792228788
0.03047916667,0.09775785357
0.0305,0.09856630862
0.03052083333,0.1014601812
0.03054166667,0.1055982858
0.0305625,0.1078648269
0.03058333333,0.1080991998
0.03060416667,0.1058541909
0.030625,0.1040001437
0.03064583333,0.1038046852
0.03066666667,0.1058140174
0.0306875,0.1080585495
0.03070833333,0.109690927
0.03072916667,0.1100354567
0.03075,0.1099538803
0.03077083333,0.1102999449
0.03079166667,0.1115624085
0.0308125,0.1126053184
0.03083333333,0.1137963086
0.03085416667,0.1148342118
0.030875,0.1159988716
0.03089583333,0.1181078926
0.03091666667,0.1204905584
0.0309375,0.1228279099
0.03095833333,0.1243865415
0.03097916667,0.1256026626
0.031,0.1260249615
0.03102083333,0.1270075142
0.03104166667,0.1286305338
0.0310625,0.1293049604
0.03108333333,0.1291597039
0.03110416667,0.1289046407
0.031125,0.128984049
0.03114583333,0.1299272478
0.03116666667,0.1318482161
0.0311875,0.133719787
0.03120833333,0.1345651448
0.03122916667,0.1346400082
0.03125,0.1338543445
0.03127083333,0.1329298317
0.03129166667,0.1330775172
0.0313125,0.1344436556
0.03133333333,0.1358846724
0.03135416667,0.1372953206
0.031375,0.1384076178
0.03139583333,0.1393641382
0.03141666667,0.1400527507
0.0314375,0.1402929872
0.03145833333,0.1406081617
0.03147916667,0.1408800185
0.0315,0.1415976733
0.03152083333,0.1426237524
0.03154166667,0.1437441409
0.0315625,0.1442351341
0.03158333333,0.1440455467
0.03160416667,0.1433129013
0.031625,0.1433299929
0.03164583333,0.1438225657
0.03166666667,0.145266369
0.0316875,0.1466441751
0.03170833333,0.1471657455
0.03172916667,0.1467433572
0.03175,0.1458173692
0.03177083333,0.145119369
0.03179166667,0.145244658
0.0318125,0.1457892656
0.03183333333,0.1462316662
0.03185416667,0.1463070214
0.031875,0.1461575329
0.03189583333,0.1459918469
0.03191666667,0.1464267373
0.0319375,0.1473385096
0.03195833333,0.1485356838
0.03197916667,0.1496390551
0.032,0.1501025707
0.03202083333,0.150584057
0.03204166667,0.1515577137
0.0320625,0.1526406109
0.03208333333,0.1539459676
0.03210416667,0.1553920656
0.032125,0.1564653069
0.03214583333,0.1573863178
0.03216666667,0.1582235545
0.0321875,0.1589692682
0.03220833333,0.1597842127
0.03222916667,0.1607262641
0.03225,0.1618085057
0.03227083333,0.1630744636
0.03229166667,0.1647299379
0.0323125,0.1665060967
0.03233333333,0.1681463122
0.03235416667,0.1695321947
0.032375,0.1707790494
0.03239583333,0.1724451333
0.03241666667,0.1747932881
0.0324375,0.1774482876
0.03245833333,0.1803575158
0.03247916667,0.1823985726
0.0325,0.1838925779
0.03252083333,0.1847928613
0.03254166667,0.1857983321
0.0325625,0.1872307509
0.03258333333,0.1890597194
0.03260416667,0.1908633858
0.032625,0.1924151033
0.03264583333,0.1930855513
0.03266666667,0.1935041696
0.0326875,0.193842113
0.03270833333,0.1946069598
0.03272916667,0.1956899762
0.03275,0.1969914436
0.03277083333,0.1980700493
0.03279166667,0.1988572031
0.0328125,0.1995302439
0.03283333333,0.2000353038
0.03285416667,0.2007004768
0.032875,0.2016845495
0.03289583333,0.2028980851
0.03291666667,0.2041774243
0.0329375,0.2051012367
0.03295833333,0.205964461
0.03297916667,0.2063689083
0.033,0.2063325793
0.03302083333,0.206406936
0.03304166667,0.2065569311
0.0330625,0.2066708207
0.03308333333,0.2065490782
0.03310416667,0.2061987519
0.033125,0.2053894699
0.03314583333,0.2044061422
0.03316666667,0.2032997906
0.0331875,0.202520594
0.03320833333,0.2020091116
0.03322916667,0.2015619129
0.03325,0.2009630203
0.03327083333,0.2001519799
0.03329166667,0.1990816444
0.0333125,0.1980030537
0.03333333333,0.1971160471
0.03335416667,0.1963602602
0.033375,0.1954543591
0.03339583333,0.1943431497
0.03341666667,0.1928644478
0.0334375,0.1913215071
0.03345833333,0.1901391745
0.03347916667,0.1892883778
0.0335,0.1886502504
0.03352083333,0.1876838058
0.03354166667,0.1864516884
0.0335625,0.1849271357
0.03358333333,0.1836576313
0.03360416667,0.1826872528
0.033625,0.1821835488
0.03364583333,0.1818518788
0.03366666667,0.1813862026
0.0336875,0.1804812551
0.03370833333,0.1797402501
0.03372916667,0.1790926009
0.03375,0.1787850559
0.03377083333,0.1784235388
0.03379166667,0.1779886186
0.0338125,0.1772162616
0.03383333333,0.1764327288
0.03385416667,0.1758323312
0.033875,0.1756082773
0.03389583333,0.1753836721
0.03391666667,0.175011307
0.0339375,0.1742164344
0.03395833333,0.1733126491
0.03397916667,0.1725627631
0.034,0.1717646718
0.03402083333,0.1713404059
0.03404166667,0.1709797382
0.0340625,0.1702762842
0.03408333333,0.1695629805
0.03410416667,0.1692557931
0.034125,0.169254601
0.03414583333,0.1694967747
0.03416666667,0.1695321649
0.0341875,0.1692682356
0.03420833333,0.1684148014
0.03422916667,0.1677013785
0.03425,0.166980505
0.03427083333,0.1666339785
0.03429166667,0.1665034741
0.0343125,0.1663290411
0.03433333333,0.1657311022
0.03435416667,0.1651825756
0.034375,0.1647322178
0.03439583333,0.1647651494
0.03441666667,0.165077284
0.0344375,0.1650998741
0.03445833333,0.1651688516
0.03447916667,0.165115118
0.0345,0.1653327495
0.03452083333,0.1659753621
0.03454166667,0.1666894555
0.0345625,0.1673091799
0.03458333333,0.167798847
0.03460416667,0.1680612862
0.034625,0.1683716029
0.03464583333,0.1687963903
0.03466666667,0.1692527235
0.0346875,0.1692495644
0.03470833333,0.1687598825
0.03472916667,0.1676314026
0.03475,0.1661794037
0.03477083333,0.1647863388
0.03479166667,0.1637631357
0.0348125,0.1625721753
0.03483333333,0.1612454653
0.03485416667,0.1597028822
0.034875,0.1579689831
0.03489583333,0.1566591859
0.03491666667,0.1557008922
0.0349375,0.15487279
0.03495833333,0.1537026912
0.03497916667,0.1520617306
0.035,0.1499337256
0.03502083333,0.1481951475
0.03504166667,0.1469669193
0.0350625,0.1461805105
0.03508333333,0.1457111239
0.03510416667,0.1452408582
0.035125,0.1443774551
0.03514583333,0.1435950547
0.03516666667,0.1428084075
0.0351875,0.1424523592
0.03520833333,0.1423270702
0.03522916667,0.1425810754
0.03525,0.1429094076
0.03527083333,0.1435917169
0.03529166667,0.1444486678
0.0353125,0.1453884244
0.03533333333,0.1463575363
0.03535416667,0.1474084407
0.035375,0.1486139297
0.03539583333,0.1500176638
0.03541666667,0.1515844017
0.0354375,0.1533352286
0.03545833333,0.1549259424
0.03547916667,0.1561073214
0.0355,0.1568432748
0.03552083333,0.1572989821
0.03554166667,0.1574792415
0.0355625,0.1572954208
0.03558333333,0.1566828638
0.03560416667,0.1556466818
0.035625,0.1541306674
0.03564583333,0.1524368823
0.03566666667,0.1505961418
0.0356875,0.1486579776
0.03570833333,0.1464255303
0.03572916667,0.1437767297
0.03575,0.1406845748
0.03577083333,0.1373087466
0.03579166667,0.1338185668
0.0358125,0.1306221932
0.03583333333,0.1274914145
0.03585416667,0.1243971959
0.035875,0.1212910116
0.03589583333,0.1181206927
0.03591666667,0.1147869751
0.0359375,0.1116232276
0.03595833333,0.1085647494
0.03597916667,0.1056679562
0.036,0.1027016416
0.03602083333,0.09974983335
0.03604166667,0.09680157155
0.0360625,0.09398549795
0.03608333333,0.09138296545
0.03610416667,0.08911158144
0.036125,0.0869872272
0.03614583333,0.08505353332
0.03616666667,0.08311215043
0.0361875,0.08168756962
0.03620833333,0.08026908338
0.03622916667,0.07924430072
0.03625,0.0782410875
0.03627083333,0.07743065804
0.03629166667,0.0766216144
0.0363125,0.07619920373
0.03633333333,0.07576262951
0.03635416667,0.07563097775
0.036375,0.07568991929
0.03639583333,0.07586956024
0.03641666667,0.07594744116
0.0364375,0.07600407302
0.03645833333,0.07580817491
0.03647916667,0.0757425949
0.0365,0.07582656294
0.03652083333,0.0759601444
0.03654166667,0.07613036036
0.0365625,0.07611194253
0.03658333333,0.07608550042
0.03660416667,0.07631218433
0.036625,0.07649122924
0.03664583333,0.07674216479
0.03666666667,0.07676804811
0.0366875,0.07651557028
0.03670833333,0.07590653002
0.03672916667,0.07507193089
0.03675,0.07411037385
0.03677083333,0.07319550961
0.03679166667,0.07256419957
0.0368125,0.07180397958
0.03683333333,0.07064850628
0.03685416667,0.06926711649
0.036875,0.0675425604
0.03689583333,0.06599862128
0.03691666667,0.06453093141
0.0369375,0.0629709214
0.03695833333,0.06113351509
0.03697916667,0.0591789782
0.037,0.05714455619
0.03702083333,0.05537001789
0.03704166667,0.05357196927
0.0370625,0.05189187825
0.03708333333,0.05017148703
0.03710416667,0.04844256118
0.037125,0.04667584226
0.03714583333,0.04527210444
0.03716666667,0.04400384799
0.0371875,0.04281880707
0.03720833333,0.0414814055
0.03722916667,0.0400532037
0.03725,0.038513273
0.03727083333,0.03698867559
0.03729166667,0.03552113101
0.0373125,0.03433728963
0.03733333333,0.03301409259
0.03735416667,0.03159850836
0.037375,0.03022609279
0.03739583333,0.02904197387
0.03741666667,0.02793852612
0.0374375,0.02690570429
0.03745833333,0.02545574866
0.03747916667,0.02353839949
0.0375,0.02109965496
0.03752083333,0.01861203834
0.03754166667,0.01632815972
0.0375625,0.0144459866
0.03758333333,0.01255877689
0.03760416667,0.01055938564
0.037625,0.008025011979
0.03764583333,0.004982554819
0.03766666667,0.001770705683
0.0376875,-0.001505747903
0.03770833333,-0.004840454087
0.03772916667,-0.008162263781
0.03775,-0.01169781201
0.03777083333,-0.01533443853
0.03779166667,-0.0191048272
0.0378125,-0.02278683893
0.03783333333,-0.02656234056
0.03785416667,-0.03016119264
0.037875,-0.03415885568
0.03789583333,-0.03836998716
0.03791666667,-0.0426735878
0.0379375,-0.04689792916
0.03795833333,-0.05114486441
0.03797916667,-0.0554253757
0.038,-0.06020218879
0.03802083333,-0.06496795267
0.03804166667,-0.0697959438
0.0380625,-0.07460691035
0.03808333333,-0.07930031419
0.03810416667,-0.08396614343
0.038125,-0.08887909353
0.03814583333,-0.09389472753
0.03816666667,-0.09898136556
0.0381875,-0.1039135531
0.03820833333,-0.1087493747
0.03822916667,-0.1135027185
0.03825,-0.1182674617
0.03827083333,-0.1230624765
0.03829166667,-0.127935499
0.0383125,-0.1326649934
0.03833333333,-0.1372755021
0.03835416667,-0.1413339078
0.038375,-0.1452976763
0.03839583333,-0.1490911245
0.03841666667,-0.1528621614
0.0384375,-0.1563969851
0.03845833333,-0.1598112434
0.03847916667,-0.1629072279
0.0385,-0.1659415066
0.03852083333,-0.1691230088
0.03854166667,-0.1721164286
0.0385625,-0.1749683619
0.03858333333,-0.1775550842
0.03860416667,-0.179905057
0.038625,-0.1819693744
0.03864583333,-0.1838118434
0.03866666667,-0.1857813448
0.0386875,-0.1876639575
0.03870833333,-0.1894922256
0.03872916667,-0.1910960227
0.03875,-0.1928179413
0.03877083333,-0.1945716143
0.03879166667,-0.1966347098
0.0388125,-0.1990542561
0.03883333333,-0.2018554211
0.03885416667,-0.2047939152
0.038875,-0.2079444826
0.03889583333,-0.2112788111
0.03891666667,-0.2146823406
0.0389375,-0.2181572169
0.03895833333,-0.2216911763
0.03897916667,-0.2249870151
0.039,-0.2282174826
0.03902083333,-0.2311043739
0.03904166667,-0.2338782251
0.0390625,-0.2365228385
0.03908333333,-0.239087224
0.03910416667,-0.2412155569
0.039125,-0.2431198657
0.03914583333,-0.2446540296
0.03916666667,-0.2460547537
0.0391875,-0.2473100871
0.03920833333,-0.2483370304
0.03922916667,-0.2492882013
0.03925,-0.2500474453
0.03927083333,-0.2505246997
0.03929166667,-0.2510831952
0.0393125,-0.251383692
0.03933333333,-0.2517510951
0.03935416667,-0.2519269884
0.039375,-0.2523082495
0.03939583333,-0.2526941299
0.03941666667,-0.2531608641
0.0394375,-0.2536409497
0.03945833333,-0.2541152537
0.03947916667,-0.2547917962
0.0395,-0.2556234002
0.03952083333,-0.2568668425
0.03954166667,-0.2583579123
0.0395625,-0.2601875961
0.03958333333,-0.2623727918
0.03960416667,-0.2645213604
0.039625,-0.2669476271
0.03964583333,-0.2697035372
0.03966666667,-0.2728025317
0.0396875,-0.2761483788
0.03970833333,-0.279753983
0.03972916667,-0.2831989229
0.03975,-0.2866944075
0.03977083333,-0.2902280688
0.03979166667,-0.293882519
0.0398125,-0.2977279425
0.03983333333,-0.3018246889
0.03985416667,-0.3056168556
0.039875,-0.3092955053
0.03989583333,-0.3126942217
0.03991666667,-0.3160176575
0.0399375,-0.3192549646
0.03995833333,-0.3228089213
0.03997916667,-0.3265566528
0.04,-0.3305865228
0.04002083333,-0.3342230022
0.04004166667,-0.3373211324
0.0400625,-0.3402149379
0.04008333333,-0.3430700004
0.04010416667,-0.3461626172
0.040125,-0.3491720259
0.04014583333,-0.3522798717
0.04016666667,-0.3558190167
0.0401875,-0.3589631915
0.04020833333,-0.3624654412
0.04022916667,-0.3657139242
0.04025,-0.3686132133
0.04027083333,-0.3715642989
0.04029166667,-0.3745778203
0.0403125,-0.3772661388
0.04033333333,-0.3796447515
0.04035416667,-0.3816290796
0.040375,-0.3837285936
0.04039583333,-0.3857545555
0.04041666667,-0.3876717985
0.0404375,-0.3894228935
0.04045833333,-0.3912961483
0.04047916667,-0.3929423988
0.0405,-0.3945868313
0.04052083333,-0.3961619437
0.04054166667,-0.3980255425
0.0405625,-0.3999443352
0.04058333333,-0.4018783867
0.04060416667,-0.4037302434
0.040625,-0.4056338966
0.04064583333,-0.4074518383
0.04066666667,-0.4092873931
0.0406875,-0.4111556411
0.04070833333,-0.4130646884
0.04072916667,-0.4147136509
0.04075,-0.4163660407
0.04077083333,-0.4175463915
0.04079166667,-0.4187066853
0.0408125,-0.4197276235
0.04083333333,-0.4205713868
0.04085416667,-0.4213410616
0.040875,-0.4220683277
0.04089583333,-0.4226081371
0.04091666667,-0.423043251
0.0409375,-0.4231745303
0.04095833333,-0.4233130217
0.04097916667,-0.4231476784
0.041,-0.4231958091
0.04102083333,-0.4228502214
0.04104166667,-0.4225991964
0.0410625,-0.4219172895
0.04108333333,-0.4211179614
0.04110416667,-0.4200080931
0.041125,-0.4188381135
0.04114583333,-0.4176420867
0.04116666667,-0.4163502455
0.0411875,-0.4149232507
0.04120833333,-0.4132542014
0.04122916667,-0.411311537
0.04125,-0.4093601108
0.04127083333,-0.4071102142
0.04129166667,-0.4049675167
0.0413125,-0.4027363956
0.04133333333,-0.4006268978
0.04135416667,-0.3983183503
0.041375,-0.3963078558
0.04139583333,-0.3944282234
0.04141666667,-0.392228514
0.0414375,-0.3895642757
0.04145833333,-0.3871772289
0.04147916667,-0.3845747709
0.0415,-0.3819082677
0.04152083333,-0.3793113828
0.04154166667,-0.3768148124
0.0415625,-0.3741767704
0.04158333333,-0.371440351
0.04160416667,-0.3683750927
0.041625,-0.3654451072
0.04164583333,-0.362262398
0.04166666667,-0.3592321277
0.0416875,-0.35627985
0.04170833333,-0.3534176052
0.04172916667,-0.3506449163
0.04175,-0.3478680551
0.04177083333,-0.3452607393
0.04179166667,-0.3429108262
0.0418125,-0.3406658769
0.04183333333,-0.3387491107
0.04185416667,-0.3370218873
0.041875,-0.335624367
0.04189583333,-0.3341656923
0.04191666667,-0.3329698145
0.0419375,-0.331828624
0.04195833333,-0.3310213089
0.04197916667,-0.3303737044
0.042,-0.3300053179
0.04202083333,-0.329561919
0.04204166667,-0.3295627534
0.0420625,-0.3295266032
0.04208333333,-0.3299632967
0.04210416667,-0.3304847181
0.042125,-0.331240356
0.04214583333,-0.331962198
0.04216666667,-0.3331920207
0.0421875,-0.3345966935
0.04220833333,-0.3363928795
0.04222916667,-0.3383944035
0.04225,-0.3407622576
0.04227083333,-0.3434582949
0.04229166667,-0.3465341926
0.0423125,-0.3498820961
0.04233333333,-0.3535352945
0.04235416667,-0.3572564125
0.042375,-0.3611491323
0.04239583333,-0.3651151955
0.04241666667,-0.369261682
0.0424375,-0.3732611239
0.04245833333,-0.3774947822
0.04247916667,-0.3817931414
0.0425,-0.385987848
0.04252083333,-0.389859736
0.04254166667,-0.3935471177
0.0425625,-0.3969894052
0.04258333333,-0.4001286626
0.04260416667,-0.4031473696
0.042625,-0.4060668051
0.04264583333,-0.4088341892
0.04266666667,-0.4116008878
0.0426875,-0.414129585
0.04270833333,-0.4168938994
0.04272916667,-0.4193363488
0.04275,-0.4218033552
0.04277083333,-0.4240706861
0.04279166667,-0.4266304374
0.0428125,-0.4290690422
0.04283333333,-0.43159163
0.04285416667,-0.4339137375
0.042875,-0.4363386929
0.04289583333,-0.4387100935
0.04291666667,-0.4410412312
0.0429375,-0.4431583285
0.04295833333,-0.4452406168
0.04297916667,-0.4470640421
0.043,-0.4487791955
0.04302083333,-0.4500759244
0.04304166667,-0.4511119425
0.0430625,-0.4518323243
0.04308333333,-0.4523431361
0.04310416667,-0.4523035884
0.043125,-0.4521216154
0.04314583333,-0.4513977468
0.04316666667,-0.4503543377
0.0431875,-0.4488131404
0.04320833333,-0.447040379
0.04322916667,-0.4448484182
0.04325,-0.442581892
0.04327083333,-0.4400857389
0.04329166667,-0.4373489618
0.0433125,-0.434327811
0.04333333333,-0.4312481284
0.04335416667,-0.4279849827
0.043375,-0.4249465168
0.04339583333,-0.421631217
0.04341666667,-0.418590039
0.0434375,-0.4154690504
0.04345833333,-0.4125462472
0.04347916667,-0.4096911252
0.0435,-0.4068565667
0.04352083333,-0.4040720463
0.04354166667,-0.4014033675
0.0435625,-0.3985036612
0.04358333333,-0.3958016932
0.04360416667,-0.3929355145
0.043625,-0.3901374042
0.04364583333,-0.3872563541
0.04366666667,-0.3845290244
0.0436875,-0.3818432689
0.04370833333,-0.3791454434
0.04372916667,-0.3763922453
0.04375,-0.3735077381
0.04377083333,-0.3704713285
0.04379166667,-0.3677257299
0.0438125,-0.3649417758
0.04383333333,-0.3622818589
0.04385416667,-0.3595072627
0.043875,-0.3569096327
0.04389583333,-0.3542484045
0.04391666667,-0.351631403
0.0439375,-0.348949194
0.04395833333,-0.3465016186
0.04397916667,-0.3440707028
0.044,-0.3419384658
0.04402083333,-0.3396129608
0.04404166667,-0.3376036882
0.0440625,-0.3355723023
0.04408333333,-0.3336724043
0.04410416667,-0.3319218159
0.044125,-0.3302623332
0.04414583333,-0.3286092877
0.04416666667,-0.327237308
0.0441875,-0.325822711
0.04420833333,-0.3246338367
0.04422916667,-0.3233579397
0.04425,-0.3223931491
0.04427083333,-0.3214980066
0.04429166667,-0.3208335936
0.0443125,-0.320395112
0.04433333333,-0.3202352226
0.04435416667,-0.3203126192
0.044375,-0.320564568
0.04439583333,-0.3207660019
0.04441666667,-0.3211467564
0.0444375,-0.3215182126
0.04445833333,-0.3220721483
0.04447916667,-0.322558254
0.0445,-0.3230835795
0.04452083333,-0.3233800232
0.04454166667,-0.3236559033
0.0445625,-0.3236832619
0.04458333333,-0.3236110508
0.04460416667,-0.3231790066
0.044625,-0.3228236437
0.04464583333,-0.3220520616
0.04466666667,-0.3211556375
0.0446875,-0.3198978007
0.04470833333,-0.3184901774
0.04472916667,-0.3167224824
0.04475,-0.3148516417
0.04477083333,-0.3124956787
0.04479166667,-0.3101018369
0.0448125,-0.307446897
0.04483333333,-0.3048419058
0.04485416667,-0.3019711077
0.044875,-0.2990644574
0.04489583333,-0.2959290147
0.04491666667,-0.292888999
0.0449375,-0.2899596989
0.04495833333,-0.2874653935
0.04497916667,-0.285042882
0.045,-0.2829381227
0.04502083333,-0.2807358801
0.04504166667,-0.2787467837
0.0450625,-0.2767314017
0.04508333333,-0.2750025094
0.04510416667,-0.2734889388
0.045125,-0.2724732459
0.04514583333,-0.2716679573
0.04516666667,-0.2711889446
0.0451875,-0.2709189653
0.04520833333,-0.2708638012
0.04522916667,-0.2710931599
0.04525,-0.2716972828
0.04527083333,-0.2724730074
0.04529166667,-0.2737160921
0.0453125,-0.2750454545
0.04533333333,-0.276714772
0.04535416667,-0.2783139348
0.045375,-0.2802073956
0.04539583333,-0.2820461094
0.04541666667,-0.2839972079
0.0454375,-0.285831362
0.04545833333,-0.2874954045
0.04547916667,-0.2888746262
0.0455,-0.2902037501
0.04552083333,-0.2909992039
0.04554166667,-0.2915645838
0.0455625,-0.2916786075
0.04558333333,-0.2914653718
0.04560416667,-0.2905733287
0.045625,-0.2892359197
0.04564583333,-0.2871930301
0.04566666667,-0.2847527862
0.0456875,-0.2816124558
0.04570833333,-0.2781431973
0.04572916667,-0.2741552889
0.04575,-0.26974383
0.04577083333,-0.2648290694
0.04579166667,-0.2595026493
0.0458125,-0.2538074255
0.04583333333,-0.2479312569
0.04585416667,-0.2417161018
0.045875,-0.235437721
0.04589583333,-0.2289313376
0.04591666667,-0.2224789411
0.0459375,-0.2158496082
0.04595833333,-0.2094382197
0.04597916667,-0.2029206306
0.046,-0.19671534
0.04602083333,-0.19059591
0.04604166667,-0.1847121119
0.0460625,-0.1789874732
0.04608333333,-0.1735718101
0.04610416667,-0.168334499
0.046125,-0.1634972692
0.04614583333,-0.1588497311
0.04616666667,-0.1546650231
0.0461875,-0.1507247984
0.04620833333,-0.1473053545
0.04622916667,-0.1441094875
0.04625,-0.1414048523
0.04627083333,-0.1388667524
0.04629166667,-0.1367232352
0.0463125,-0.1347976774
0.04633333333,-0.1333443224
0.04635416667,-0.1320823282
0.046375,-0.1311979145
0.04639583333,-0.1303753704
0.04641666667,-0.1299405843
0.0464375,-0.1295907944
0.04645833333,-0.1294032931
0.04647916667,-0.1291454136
0.0465,-0.1289447248
0.04652083333,-0.1287066787
0.04654166667,-0.1286049634
0.0465625,-0.1282306612
0.04658333333,-0.1277034283
0.04660416667,-0.1268526763
0.046625,-0.1259040534
0.04664583333,-0.1247229576
0.04666666667,-0.1235660762
0.0466875,-0.1220137551
0.04670833333,-0.1204054207
0.04672916667,-0.1185316965
0.04675,-0.1164578721
0.04677083333,-0.1142437086
0.04679166667,-0.1119796485
0.0468125,-0.1094814017
0.04683333333,-0.1070111096
0.04685416667,-0.1043725088
0.046875,-0.1017821431
0.04689583333,-0.09909377992
0.04691666667,-0.09656204283
0.0469375,-0.09399255365
0.04695833333,-0.09168882668
0.04697916667,-0.08935783058
0.047,-0.08719268441
0.04702083333,-0.08520933986
0.04704166667,-0.08347678185
0.0470625,-0.08171633631
0.04708333333,-0.08023803681
0.04710416667,-0.07882335782
0.047125,-0.07766391337
0.04714583333,-0.0765414536
0.04716666667,-0.07564585656
0.0471875,-0.07466347516
0.04720833333,-0.07382953912
0.04722916667,-0.07293794304
0.04725,-0.07220881432
0.04727083333,-0.07134311646
0.04729166667,-0.07059541345
0.0473125,-0.06974802166
0.04733333333,-0.06906974316
0.04735416667,-0.06822951138
0.047375,-0.06726711988
0.04739583333,-0.06620811671
0.04741666667,-0.0650793761
0.0474375,-0.06376610696
0.04745833333,-0.06243326142
0.04747916667,-0.0608086288
0.0475,-0.05923171714
0.04752083333,-0.05741520599
0.04754166667,-0.05544022098
0.0475625,-0.05313305557
0.04758333333,-0.05071999505
0.04760416667,-0.04793569446
0.047625,-0.04507445544
0.04764583333,-0.04200932756
0.04766666667,-0.03887704015
0.0476875,-0.03547755256
0.04770833333,-0.03189632669
0.04772916667,-0.02791427262
0.04775,-0.02387107164
0.04777083333,-0.01963239722
0.04779166667,-0.01570739038
0.0478125,-0.01180132292
0.04783333333,-0.008180444129
0.04785416667,-0.004429833032
0.047875,-0.0008405094268
0.04789583333,0.002824232914
0.04791666667,0.006495042704
0.0479375,0.01024852041
0.04795833333,0.01378026232
0.04797916667,0.01733594015
0.048,0.02068321034
0.04802083333,0.02420000359
0.04804166667,0.02762016468
0.0480625,0.03139674664
0.04808333333,0.03524550796
0.04810416667,0.03935844824
0.048125,0.04354616255
0.04814583333,0.04806135222
0.04816666667,0.05271903798
0.0481875,0.05764415115
0.04820833333,0.06275507808
0.04822916667,0.06809289753
0.04825,0.07343674451
0.04827083333,0.07890153676
0.04829166667,0.08428590745
0.0483125,0.08963114768
0.04833333333,0.0949575901
0.04835416667,0.1003317535
0.048375,0.1055002585
0.04839583333,0.110599421
0.04841666667,0.1153694242
0.0484375,0.1201601177
0.04845833333,0.1246971935
0.04847916667,0.1291756183
0.0485,0.1332826316
0.04852083333,0.1372164488
0.04854166667,0.1410888284
0.0485625,0.1451731473
0.04858333333,0.1487523317
0.04860416667,0.1521107852
0.048625,0.155212149
0.04864583333,0.1584264338
0.04866666667,0.1615849733
0.0486875,0.1645493805
0.04870833333,0.1673306376
0.04872916667,0.170012638
0.04875,0.1725554019
0.04877083333,0.1753033698
0.04879166667,0.177962184
0.0488125,0.1810526848
0.04883333333,0.1841113269
0.04885416667,0.1875470281
0.048875,0.1910838336
0.04889583333,0.1948053688
0.04891666667,0.1984798163
0.0489375,0.202387467
0.04895833333,0.2061876059
0.04897916667,0.210001722
0.049,0.213634938
0.04902083333,0.217290163
0.04904166667,0.2206567973
0.0490625,0.2239324003
0.04908333333,0.2268738747
0.04910416667,0.2296663374
0.049125,0.2320780754
0.04914583333,0.2344257534
0.04916666667,0.2364640683
0.0491875,0.2382776886
0.04920833333,0.2395972759
0.04922916667,0.2404739708
0.04925,0.2407743931
0.04927083333,0.2408565134
0.04929166667,0.240651682
0.0493125,0.2404391021
0.04933333333,0.2400197089
0.04935416667,0.2395976335
0.049375,0.2389420569
0.04939583333,0.2382271588
0.04941666667,0.2375342995
0.0494375,0.2371529937
0.04945833333,0.237070635
0.04947916667,0.2373039871
0.0495,0.2376366556
0.04952083333,0.2385059297
0.04954166667,0.2395077944
0.0495625,0.2407528907
0.04958333333,0.2421987802
0.04960416667,0.2439981997
0.049625,0.2468418777
0.04964583333,0.2505313456
0.04966666667,0.2542015016
0.0496875,0.2580547333
0.04970833333,0.2614655495
0.04972916667,0.2651524544
0.04975,0.2688904107
0.04977083333,0.2728026807
0.04979166667,0.2773734629
0.0498125,0.2820631266
0.04983333333,0.2864553332
0.04985416667,0.2907865942
0.049875,0.2948456407
0.04989583333,0.2987799644
0.04991666667,0.3024135828
0.0499375,0.3058097064
0.04995833333,0.30889377
0.04997916667,0.3118073642
0.05,0.3148207664
0.05002083333,0.3175288737
0.05004166667,0.3200305998
0.0500625,0.3226924539
0.05008333333,0.3253087103
0.05010416667,0.3279673755
0.050125,0.3305989802
0.05014583333,0.33333233
0.05016666667,0.3360880613
0.0501875,0.3388649821
0.05020833333,0.3418062329
0.05022916667,0.34468171
0.05025,0.3476433456
0.05027083333,0.3507484198
0.05029166667,0.353815496
0.0503125,0.3571372628
0.05033333333,0.3603615463
0.05035416667,0.3638703227
0.050375,0.3672634065
0.05039583333,0.3708493412
0.05041666667,0.3743322492
0.0504375,0.3780095279
0.05045833333,0.3816539049
0.05047916667,0.3856736124
0.0505,0.3898527324
0.05052083333,0.3939113319
0.05054166667,0.3979125917
0.0505625,0.402026087
0.05058333333,0.4064926803
0.05060416667,0.4110922217
0.050625,0.4155656695
0.05064583333,0.4199310541
0.05066666667,0.4242228568
0.0506875,0.4291581511
0.05070833333,0.433665812
0.05072916667,0.4376609325
0.05075,0.4410201907
0.05077083333,0.4442529082
0.05079166667,0.4488422573
0.0508125,0.4537955225
0.05083333333,0.4580010772
0.05085416667,0.4616887569
0.050875,0.4647086859
0.05089583333,0.4672768116
0.05091666667,0.4694598913
0.0509375,0.4712198079
0.05095833333,0.4728263319
0.05097916667,0.4742193222
0.051,0.4752500355
0.05102083333,0.4761221111
0.05104166667,0.4763910174
0.0510625,0.4765125811
0.05108333333,0.4761407077
0.05110416667,0.475417465
0.051125,0.4744005203
0.05114583333,0.4733646512
0.05116666667,0.4721032679
0.0511875,0.4711898565
0.05120833333,0.4701325595
0.05122916667,0.4686896503
0.05125,0.4670370221
0.05127083333,0.4652520716
0.05129166667,0.4634176493
0.0513125,0.4615500569
0.05133333333,0.4595241845
0.05135416667,0.4575963616
0.051375,0.455467999
0.05139583333,0.4535970986
0.05141666667,0.4516379535
0.0514375,0.4498224854
0.05145833333,0.4479551911
0.05147916667,0.4463560581
0.0515,0.4447146356
0.05152083333,0.4431343973
0.05154166667,0.4417063892
0.0515625,0.4403686225
0.05158333333,0.4394699633
0.05160416667,0.4388742745
0.051625,0.4381948709
0.05164583333,0.4378558397
0.05166666667,0.4378220439
0.0516875,0.4377683401
0.05170833333,0.437449038
0.05172916667,0.4369053543
0.05175,0.4362034202
0.05177083333,0.4355309308
0.05179166667,0.4346217811
0.0518125,0.4338237941
0.05183333333,0.4325213432
0.05185416667,0.4312343001
0.051875,0.4298796654
0.05189583333,0.4283829331
0.05191666667,0.4269123971
0.0519375,0.425323993
0.05195833333,0.4237664044
0.05197916667,0.4224589467
0.052,0.4211114347
0.05202083333,0.4199059606
0.05204166667,0.4189213514
0.0520625,0.4181064963
0.05208333333,0.4174869955
0.05210416667,0.417211622
0.052125,0.4169902503
0.05214583333,0.4169558883
0.05216666667,0.4172902703
0.0521875,0.4181771874
0.05220833333,0.4191117585
0.05222916667,0.420422107
0.05225,0.4217689931
0.05227083333,0.423587501
0.05229166667,0.4257441759
0.0523125,0.4281275868
0.05233333333,0.4307450652
0.05235416667,0.4333330691
0.052375,0.4360201359
0.05239583333,0.4387059808
0.05241666667,0.4413976967
0.0524375,0.4440898597
0.05245833333,0.446606338
0.05247916667,0.4490117729
0.0525,0.451331079
0.05252083333,0.4535176456
0.05254166667,0.455524534
0.0525625,0.457368046
0.05258333333,0.4588211477
0.05260416667,0.4600703418
0.052625,0.4611291885
0.05264583333,0.4620936513
0.05266666667,0.4627717435
0.0526875,0.4634066522
0.05270833333,0.4638520479
0.05272916667,0.4643074572
0.05275,0.4645955265
0.05277083333,0.464779675
0.05279166667,0.4648712575
0.0528125,0.4649407566
0.05283333333,0.4651453495
0.05285416667,0.4653085172
0.052875,0.4655095935
0.05289583333,0.4659450948
0.05291666667,0.4662462771
0.0529375,0.4666912258
0.05295833333,0.4670464396
0.05297916667,0.4674045444
0.053,0.467508316
0.05302083333,0.4675551355
0.05304166667,0.4674244225
0.0530625,0.4671126306
0.05308333333,0.4666462243
0.05310416667,0.4659992158
0.053125,0.4649212062
0.05314583333,0.4636521935
0.05316666667,0.4618399143
0.0531875,0.4597684741
0.05320833333,0.4572792053
0.05322916667,0.4543252885
0.05325,0.4511896372
0.05327083333,0.4477443099
0.05329166667,0.4440876245
0.0533125,0.4404124022
0.05333333333,0.4364472628
0.05335416667,0.4324497283
0.053375,0.4282468557
0.05339583333,0.423992306
0.05341666667,0.4196965396
0.0534375,0.4156120718
0.05345833333,0.4114308655
0.05347916667,0.4075534046
0.0535,0.4038634896
0.05352083333,0.4002285302
0.05354166667,0.3966295123
0.0535625,0.3930882514
0.05358333333,0.389688015
0.05360416667,0.3863452673
0.053625,0.3832629621
0.05364583333,0.3804270327
0.05366666667,0.3775986731
0.0536875,0.37495929
0.05370833333,0.3722096682
0.05372916667,0.3695638478
0.05375,0.3668881357
0.05377083333,0.3642251492
0.05379166667,0.3616928756
0.0538125,0.3591937423
0.05383333333,0.3567103744
0.05385416667,0.3542589545
0.053875,0.3516259789
0.05389583333,0.3489610255
0.05391666667,0.3461040854
0.0539375,0.3432581127
0.05395833333,0.3403668106
0.05397916667,0.3373612463
0.054,0.3343763053
0.05402083333,0.3314613104
0.05404166667,0.328558892
0.0540625,0.3257405758
0.05408333333,0.3228761554
0.05410416667,0.3200682104
0.054125,0.317340225
0.05414583333,0.3147284389
0.05416666667,0.3120314479
0.0541875,0.3096313179
0.05420833333,0.3073417842
0.05422916667,0.305103004
0.05425,0.3030327857
0.05427083333,0.3011339307
0.05429166667,0.2994756103
0.0543125,0.2979984581
0.05433333333,0.2967079878
0.05435416667,0.295607686
0.054375,0.2947487831
0.05439583333,0.2941143513
0.05441666667,0.2935929596
0.0544375,0.2931374907
0.05445833333,0.2927839756
0.05447916667,0.2927405536
0.0545,0.2927771509
0.05452083333,0.2928279936
0.05454166667,0.2928557992
0.0545625,0.2927084267
0.05458333333,0.2924029827
0.05460416667,0.2919973433
0.054625,0.2913448811
0.05464583333,0.2903430164
0.05466666667,0.2890740037
0.0546875,0.2874577343
0.05470833333,0.2853863835
0.05472916667,0.282961458
0.05475,0.280140847
0.05477083333,0.2770500183
0.05479166667,0.2734342813
0.0548125,0.2695996463
0.05483333333,0.2654352188
0.05485416667,0.2611282468
0.054875,0.2566604614
0.05489583333,0.2523342669
0.05491666667,0.2480460852
0.0549375,0.2439144105
0.05495833333,0.2398020923
0.05497916667,0.2360051721
0.055,0.2324299365
0.05502083333,0.2292328179
0.05504166667,0.226414606
0.0550625,0.2239856869
0.05508333333,0.22198686
0.05510416667,0.2203661799
0.055125,0.2191383839
0.05514583333,0.2182659656
0.05516666667,0.2179059684
0.0551875,0.21796377
0.05520833333,0.2185426652
0.05522916667,0.2193653733
0.05525,0.220518738
0.05527083333,0.2219359279
0.05529166667,0.2235905379
0.0553125,0.2254400253
0.05533333333,0.2273260057
0.05535416667,0.2292893529
0.055375,0.2311259657
0.05539583333,0.2329687923
0.05541666667,0.234516263
0.0554375,0.235877648
0.05545833333,0.2368819416
0.05547916667,0.2375378907
0.0555,0.2378453016
0.05552083333,0.2378330976
0.05554166667,0.2374504358
0.0555625,0.2365550846
0.05558333333,0.2351083457
0.05560416667,0.2332002223
0.055625,0.2308437079
0.05564583333,0.2278841585
0.05566666667,0.2246329039
0.0556875,0.2210413069
0.05570833333,0.2169842571
0.05572916667,0.2126576453
0.05575,0.2080610842
0.05577083333,0.2034122497
0.05579166667,0.1986846328
0.0558125,0.1937667727
0.05583333333,0.1888136715
0.05585416667,0.1840323657
0.055875,0.1794373393
0.05589583333,0.1749206632
0.05591666667,0.1703298092
0.0559375,0.1656804979
0.05595833333,0.1611594856
0.05597916667,0.1565363407
0.056,0.1518741101
0.05602083333,0.14736332
0.05604166667,0.1428125799
0.0560625,0.1383098811
0.05608333333,0.1338181347
0.05610416667,0.1293290555
0.056125,0.1248942316
0.05614583333,0.1206233054
0.05616666667,0.116527319
0.0561875,0.1126940921
0.05620833333,0.1091124415
0.05622916667,0.105851151
0.05625,0.1028397456
0.05627083333,0.1003163904
0.05629166667,0.09799109399
0.0563125,0.09597679228
0.05633333333,0.09435507655
0.05635416667,0.09312498569
0.056375,0.0922344774
0.05639583333,0.09156700224
0.05641666667,0.09105865657
0.0564375,0.09082964063
0.05645833333,0.09067531675
0.05647916667,0.0906888321
0.0565,0.09085138142
0.05652083333,0.09119799733
0.05654166667,0.09163438529
0.0565625,0.09197843075
0.05658333333,0.09243235737
0.05660416667,0.09288224578
0.056625,0.09330435842
0.05664583333,0.09357836843
0.05666666667,0.09358651936
0.0566875,0.09340851754
0.05670833333,0.09294299036
0.05672916667,0.09223105758
0.05675,0.09113471955
0.05677083333,0.08996532857
0.05679166667,0.08828532696
0.0568125,0.08618617058
0.05683333333,0.08364895731
0.05685416667,0.0807960555
0.056875,0.07750143111
0.05689583333,0.07404582202
0.05691666667,0.07029929757
0.0569375,0.06631390005
0.05695833333,0.0621894747
0.05697916667,0.05793112889
0.057,0.05371856689
0.05702083333,0.04940228164
0.05704166667,0.04505778477
0.0570625,0.04098334908
0.05708333333,0.03708398342
0.05710416667,0.03325011954
0.057125,0.02957946807
0.05714583333,0.02604903467
0.05716666667,0.02274464443
0.0571875,0.01955253631
0.05720833333,0.01647417247
0.05722916667,0.01360962074
0.05725,0.01105878502
0.05727083333,0.008670690469
0.05729166667,0.00649485318
0.0573125,0.004619368818
0.05733333333,0.002948426642
0.05735416667,0.001327838283
0.057375,-0.0001734993421
0.05739583333,-0.001568597276
0.05741666667,-0.003065084107
0.0574375,-0.004678090569
0.05745833333,-0.006356172729
0.05747916667,-0.008075228892
0.0575,-0.0098883342
0.05752083333,-0.01195869409
0.05754166667,-0.01405807491
0.0575625,-0.01646926254
0.05758333333,-0.01925868541
0.05760416667,-0.02239290811
0.057625,-0.02582092024
0.05764583333,-0.02928067744
0.05766666667,-0.03292725235
0.0576875,-0.0367294997
0.05770833333,-0.04074273631
0.05772916667,-0.04503461346
0.05775,-0.04954604805
0.05777083333,-0.05426859856
0.05779166667,-0.05910435691
0.0578125,-0.06392829865
0.05783333333,-0.06878700852
0.05785416667,-0.073484689
0.057875,-0.07825071365
0.05789583333,-0.08314596117
0.05791666667,-0.08795674145
0.0579375,-0.09281659126
0.05795833333,-0.09737264365
0.05797916667,-0.1020659357
0.058,-0.106773369
0.05802083333,-0.1114844605
0.05804166667,-0.1163481176
0.0580625,-0.1211446896
0.05808333333,-0.1259448677
0.05810416667,-0.1309516728
0.058125,-0.1360221505
0.05814583333,-0.1411545873
0.05816666667,-0.1463422179
0.0581875,-0.1515205055
0.05820833333,-0.1567883492
0.05822916667,-0.1619583517
0.05825,-0.1671806723
0.05827083333,-0.17236045
0.05829166667,-0.1775482893
0.0583125,-0.182783097
0.05833333333,-0.1877817512
0.05835416667,-0.1927535385
0.058375,-0.1975156069
0.05839583333,-0.2021450102
0.05841666667,-0.2066458464
0.0584375,-0.2109850943
0.05845833333,-0.2151255012
0.05847916667,-0.2191391289
0.0585,-0.2229067087
0.05852083333,-0.2263522446
0.05854166667,-0.2298573703
0.0585625,-0.2329120189
0.05858333333,-0.2359033376
0.05860416667,-0.238729924
0.058625,-0.2411310077
0.05864583333,-0.2433540672
0.05866666667,-0.2455795854
0.0586875,-0.2479194701
0.05870833333,-0.2501065731
0.05872916667,-0.2519703805
0.05875,-0.2538158298
0.05877083333,-0.2561278343
0.05879166667,-0.2582865953
0.0588125,-0.2605470121
0.05883333333,-0.2635056973
0.05885416667,-0.2668116689
0.058875,-0.2708650231
0.05889583333,-0.2751550078
0.05891666667,-0.2798142731
0.0589375,-0.284743309
0.05895833333,-0.2896933258
0.05897916667,-0.2946893275
0.059,-0.2996931076
0.05902083333,-0.3046250641
0.05904166667,-0.3093530834
0.0590625,-0.3138830662
0.05908333333,-0.3181777596
0.05910416667,-0.3221767545
0.059125,-0.3257581592
0.05914583333,-0.3290016055
0.05916666667,-0.3317298293
0.0591875,-0.3339321911
0.05920833333,-0.3356133103
0.05922916667,-0.3367681801
0.05925,-0.3375353515
0.05927083333,-0.3378118575
0.05929166667,-0.337885201
0.0593125,-0.3376877904
0.05933333333,-0.3373312056
0.05935416667,-0.3370821178
0.059375,-0.3366346061
0.05939583333,-0.3365267813
0.05941666667,-0.3364698291
0.0594375,-0.3364976048
0.05945833333,-0.3369480371
0.05947916667,-0.337675184
0.0595,-0.3388516605
0.05952083333,-0.3403837383
0.05954166667,-0.3423967659
0.0595625,-0.3448036909
0.05958333333,-0.3476086855
0.05960416667,-0.3508276343
0.059625,-0.3544088006
0.05964583333,-0.3581608534
0.05966666667,-0.3620173931
0.0596875,-0.3659697473
0.05970833333,-0.3700369
0.05972916667,-0.3741900027
0.05975,-0.3786067367
0.05977083333,-0.3833019137
0.05979166667,-0.3876422942
0.0598125,-0.3920226097
0.05983333333,-0.396605283
0.05985416667,-0.4006996751
0.059875,-0.4048315883
0.05989583333,-0.4088302255
0.05991666667,-0.4126213789
0.0599375,-0.4163040519
0.05995833333,-0.4198730886
0.05997916667,-0.4231005013
0.06,-0.426291734
0.06002083333,-0.4289157093
0.06004166667,-0.4315487444
0.0600625,-0.434145987
0.06008333333,-0.4366787076
0.06010416667,-0.4392029941
0.060125,-0.44160074
0.06014583333,-0.4440840483
0.06016666667,-0.4464971125
0.0601875,-0.4489885867
0.06020833333,-0.4515129626
0.06022916667,-0.4538624287
0.06025,-0.4562874436
0.06027083333,-0.4584829509
0.06029166667,-0.4607700109
0.0603125,-0.4630368352
0.06033333333,-0.4652703404
0.06035416667,-0.4674470127
0.060375,-0.469555825
0.06039583333,-0.4718030691
0.06041666667,-0.473849237
0.0604375,-0.4757023156
0.06045833333,-0.4773769975
0.06047916667,-0.4789562523
0.0605,-0.4804244041
0.06052083333,-0.4818648398
0.06054166667,-0.4832587838
0.0605625,-0.4845226109
0.06058333333,-0.4854432344
0.06060416667,-0.4866135418
0.060625,-0.4879723489
0.06064583333,-0.4897461236
0.06066666667,-0.4914048016
0.0606875,-0.4928467572
0.06070833333,-0.4939318597
0.06072916667,-0.4954569936
0.06075,-0.4978037179
0.06077083333,-0.4995073676
0.06079166667,-0.5006173253
0.0608125,-0.5014103055
0.06083333333,-0.5018402934
0.06085416667,-0.5019225478
0.060875,-0.5020168424
0.06089583333,-0.501911521
0.06091666667,-0.501573801
0.0609375,-0.5013725758
0.06095833333,-0.5011125207
0.06097916667,-0.5006184578
0.061,-0.5000741482
0.06102083333,-0.4994833767
0.06104166667,-0.4986030459
0.0610625,-0.4975444674
0.06108333333,-0.4965362847
0.06110416667,-0.4956104457
0.061125,-0.4946695566
0.06114583333,-0.4937721193
0.06116666667,-0.4927797616
0.0611875,-0.491637975
0.06120833333,-0.4903203547
0.06122916667,-0.4887013733
0.06125,-0.4868559241
0.06127083333,-0.4849812686
0.06129166667,-0.4828130007
0.0613125,-0.4805421531
0.06133333333,-0.4780788422
0.06135416667,-0.4755353034
0.061375,-0.4728568196
0.06139583333,-0.469964385
0.06141666667,-0.4671107531
0.0614375,-0.4642072022
0.06145833333,-0.4611496627
0.06147916667,-0.4578020275
0.0615,-0.4543738365
0.06152083333,-0.4508515298
0.06154166667,-0.4471755922
0.0615625,-0.4437282383
0.06158333333,-0.440099299
0.06160416667,-0.4365240037
0.061625,-0.432755053
0.06164583333,-0.4289045036
0.06166666667,-0.4259859025
0.0616875,-0.4235758781
0.06170833333,-0.4214542806
0.06172916667,-0.4194817543
0.06175,-0.417206645
0.06177083333,-0.4147167802
0.06179166667,-0.4122152328
0.0618125,-0.4098215699
0.06183333333,-0.4078195095
0.06185416667,-0.4059972465
0.061875,-0.4043963552
0.06189583333,-0.4029266238
0.06191666667,-0.4014692008
0.0619375,-0.4000682235
0.06195833333,-0.3988351226
0.06197916667,-0.3976005912
0.062,-0.3963091075
0.06202083333,-0.3950682282
0.06204166667,-0.3938160539
0.0620625,-0.3926306665
0.06208333333,-0.3916417956
0.06210416667,-0.3908687532
0.062125,-0.3900255263
0.06214583333,-0.3894585073
0.06216666667,-0.3891635239
0.0621875,-0.3891819119
0.06220833333,-0.3897670209
0.06222916667,-0.3907037675
0.06225,-0.3924992979
0.06227083333,-0.3948655427
0.06229166667,-0.3977906704
0.0623125,-0.4012899101
0.06233333333,-0.4052792788
0.06235416667,-0.4096727371
0.062375,-0.4142746627
0.06239583333,-0.4191558361
0.06241666667,-0.4239909351
0.0624375,-0.4288428128
0.06245833333,-0.4335689247
0.06247916667,-0.4381339252
0.0625,-0.4425852299
0.06252083333,-0.446791172
0.06254166667,-0.4507802129
0.0625625,-0.4544526041
0.06258333333,-0.4578703344
0.06260416667,-0.4608964622
0.062625,-0.4635069966
0.06264583333,-0.4658206105
0.06266666667,-0.4680151641
0.0626875,-0.4699007571
0.06270833333,-0.4716783464
0.06272916667,-0.4732936323
0.06275,-0.4747210741
0.06277083333,-0.476117909
0.06279166667,-0.4773694277
0.0628125,-0.478621453
0.06283333333,-0.4799309969
0.06285416667,-0.4811783433
0.062875,-0.4824132025
0.06289583333,-0.4834929407
0.06291666667,-0.484608233
0.0629375,-0.4855976105
0.06295833333,-0.4866183102
0.06297916667,-0.4873018265
0.063,-0.4879334569
0.06302083333,-0.488517791
0.06304166667,-0.4888177812
0.0630625,-0.4887993634
0.06308333333,-0.4884900749
0.06310416667,-0.4878270626
0.063125,-0.4868136048
0.06314583333,-0.4855599701
0.06316666667,-0.4838640094
0.0631875,-0.4817938507
0.06320833333,-0.4792911112
0.06322916667,-0.4764735997
0.06325,-0.4733685553
0.06327083333,-0.4699422121
0.06329166667,-0.4662278295
0.0633125,-0.4623749852
0.06333333333,-0.4585705101
0.06335416667,-0.454796195
0.063375,-0.45082286
0.06339583333,-0.4468799233
0.06341666667,-0.4430228174
0.0634375,-0.4392338991
0.06345833333,-0.4356070757
0.06347916667,-0.432102263
0.0635,-0.4287835956
0.06352083333,-0.4254835844
0.06354166667,-0.4222474098
0.0635625,-0.4190534353
0.06358333333,-0.4158606231
0.06360416667,-0.4127637744
0.063625,-0.4097211361
0.06364583333,-0.406725347
0.06366666667,-0.4038826227
0.0636875,-0.4008611739
0.06370833333,-0.3979952633
0.06372916667,-0.3951176107
0.06375,-0.3921800852
0.06377083333,-0.3893342018
0.06379166667,-0.386651963
0.0638125,-0.3840595186
0.06383333333,-0.3815424144
0.06385416667,-0.3792042732
0.063875,-0.3770085573
0.06389583333,-0.3749331832
0.06391666667,-0.3727783263
0.0639375,-0.3705836535
0.06395833333,-0.3683502674
0.06397916667,-0.3663072884
0.064,-0.3644283116
0.06402083333,-0.362446934
0.06404166667,-0.3606755733
0.0640625,-0.3588962853
0.06408333333,-0.3572007418
0.06410416667,-0.3555764258
0.064125,-0.3538864553
0.06414583333,-0.3522290289
0.06416666667,-0.3505865633
0.0641875,-0.3489389122
0.06420833333,-0.3472273946
0.06422916667,-0.3454997838
0.06425,-0.3437852263
0.06427083333,-0.3423076868
0.06429166667,-0.3411273956
0.0643125,-0.3402459919
0.06433333333,-0.3395651579
0.06435416667,-0.3392454982
0.064375,-0.3392493427
0.06439583333,-0.3394545913
0.06441666667,-0.3399943411
0.0644375,-0.3406670094
0.06445833333,-0.341442585
0.06447916667,-0.342325449
0.0645,-0.3432403505
0.06452083333,-0.3441870213
0.06454166667,-0.3450460434
0.0645625,-0.3457906842
0.06458333333,-0.3464923799
0.06460416667,-0.3469685912
0.064625,-0.3471879959
0.06464583333,-0.3472332358
0.06466666667,-0.346953541
0.0646875,-0.3463647664
0.06470833333,-0.3453988731
0.06472916667,-0.3438771963
0.06475,-0.3420516551
0.06477083333,-0.3397848606
0.06479166667,-0.3371103704
0.0648125,-0.3340179026
0.06483333333,-0.3305773735
0.06485416667,-0.326823324
0.064875,-0.3228657246
0.06489583333,-0.3188864291
0.06491666667,-0.3147994876
0.0649375,-0.310649395
0.06495833333,-0.3066865802
0.06497916667,-0.3027752638
0.065,-0.2990092337
0.06502083333,-0.2955115438
0.06504166667,-0.2923904657
0.0650625,-0.2894569337
0.06508333333,-0.2869111598
0.06510416667,-0.2848022282
0.065125,-0.283241421
0.06514583333,-0.2820966244
0.06516666667,-0.281483084
0.0651875,-0.2813799679
0.06520833333,-0.2817448676
0.06522916667,-0.2826804221
0.06525,-0.2839896381
0.06527083333,-0.285794735
0.06529166667,-0.2879675329
0.0653125,-0.2905716598
0.06533333333,-0.2934718132
0.06535416667,-0.2965445518
0.065375,-0.2997108698
0.06539583333,-0.3028358221
0.06541666667,-0.3058724999
0.0654375,-0.3085760772
0.06545833333,-0.3109175563
0.06547916667,-0.3128142655
0.0655,-0.3144291043
0.06552083333,-0.3155760467
0.06554166667,-0.3161133528
0.0655625,-0.3161956072
0.06558333333,-0.3155228496
0.06560416667,-0.314044714
0.065625,-0.3117562234
0.06564583333,-0.3088469207
0.06566666667,-0.3051381707
0.0656875,-0.3009515703
0.06570833333,-0.296195358
0.06572916667,-0.2907481492
0.06575,-0.285002619
0.06577083333,-0.2788560987
0.06579166667,-0.2726306319
0.0658125,-0.266317606
0.06583333333,-0.2599214017
0.06585416667,-0.253557235
0.065875,-0.2472167313
0.06589583333,-0.2410370111
0.06591666667,-0.2350401282
0.0659375,-0.2292040288
0.06595833333,-0.22344248
0.06597916667,-0.2179691643
0.066,-0.2126526237
0.06602083333,-0.2076734602
0.06604166667,-0.2028948814
0.0660625,-0.1983238906
0.06608333333,-0.1939984113
0.06610416667,-0.1898905039
0.066125,-0.1860231906
0.06614583333,-0.1824379563
0.06616666667,-0.1789588481
0.0661875,-0.1757797003
0.06620833333,-0.1729016602
0.06622916667,-0.1702146232
0.06625,-0.1677192003
0.06627083333,-0.1654337496
0.06629166667,-0.1633014083
0.0663125,-0.1613451838
0.06633333333,-0.1595436037
0.06635416667,-0.1579921544
0.066375,-0.1568243504
0.06639583333,-0.1557905078
0.06641666667,-0.1549083889
0.0664375,-0.1541434377
0.06645833333,-0.1534041911
0.06647916667,-0.1528930664
0.0665,-0.1524700224
0.06652083333,-0.1520863324
0.06654166667,-0.151728034
0.0665625,-0.1512925178
0.06658333333,-0.1507796496
0.06660416667,-0.1503482461
0.066625,-0.1498969495
0.06664583333,-0.1493754685
0.06666666667,-0.1489150226
0.0666875,-0.1482740492
0.06670833333,-0.1474510729
0.06672916667,-0.1465265006
0.06675,-0.1454565823
0.06677083333,-0.1443072855
0.06679166667,-0.1427935958
0.0668125,-0.1411541551
0.06683333333,-0.1392541677
0.06685416667,-0.1371954829
0.066875,-0.1349523067
0.06689583333,-0.1325113773
0.06691666667,-0.1301039457
0.0669375,-0.1275423914
0.06695833333,-0.1251175106
0.06697916667,-0.1227779314
0.067,-0.1203606129
0.06702083333,-0.1182443947
0.06704166667,-0.1160734892
0.0670625,-0.11397475
0.06708333333,-0.1120279804
0.06710416667,-0.110190779
0.067125,-0.1085689589
0.06714583333,-0.1069687307
0.06716666667,-0.1053956524
0.0671875,-0.1038394421
0.06720833333,-0.1022545993
0.06722916667,-0.100765951
0.06725,-0.09933868051
0.06727083333,-0.09802034497
0.06729166667,-0.09680068493
0.0673125,-0.09555067122
0.06733333333,-0.09427718073
0.06735416667,-0.09294997156
0.067375,-0.09146259725
0.06739583333,-0.08985032141
0.06741666667,-0.08804652095
0.0674375,-0.08627066016
0.06745833333,-0.08437569439
0.06747916667,-0.08232391626
0.0675,-0.08040446043
0.06752083333,-0.07841846347
0.06754166667,-0.07652252167
0.0675625,-0.07451532036
0.06758333333,-0.07229740918
0.06760416667,-0.07011264563
0.067625,-0.06786859035
0.06764583333,-0.0654706955
0.06766666667,-0.06296391785
0.0676875,-0.06037065759
0.06770833333,-0.05757961795
0.06772916667,-0.05457794666
0.06775,-0.05151192099
0.06777083333,-0.04820576683
0.06779166667,-0.04475404322
0.0678125,-0.04138357937
0.06783333333,-0.03784500062
0.06785416667,-0.03369446844
0.067875,-0.0294144135
0.06789583333,-0.02522879094
0.06791666667,-0.02103870735
0.0679375,-0.01656396687
0.06795833333,-0.01211929508
0.06797916667,-0.007756001316
0.068,-0.00368345296
0.06802083333,0.0002424493432
0.06804166667,0.004471066408
0.0680625,0.008752747439
0.06808333333,0.01333935652
0.06810416667,0.01838234998
0.068125,0.02356103808
0.06814583333,0.02905495279
0.06816666667,0.03484197706
0.0681875,0.04094561189
0.06820833333,0.04723042995
0.06822916667,0.05377510563
0.06825,0.06064912677
0.06827083333,0.06765316427
0.06829166667,0.07456068695
0.0683125,0.08148093522
0.06833333333,0.08831740171
0.06835416667,0.0950326696
0.068375,0.1015389711
0.06839583333,0.1077914461
0.06841666667,0.1138592511
0.0684375,0.1196064129
0.06845833333,0.1250377893
0.06847916667,0.1302071363
0.0685,0.1352518052
0.06852083333,0.140069291
0.06854166667,0.1446221769
0.0685625,0.1490189433
0.06858333333,0.1530587077
0.06860416667,0.1568754315
0.068625,0.1605637521
0.06864583333,0.1641157269
0.06866666667,0.1676451117
0.0686875,0.17101264
0.06870833333,0.1740393192
0.06872916667,0.1776180565
0.06875,0.1824536324
0.06877083333,0.1872059554
0.06879166667,0.1920216829
0.0688125,0.197285369
0.06883333333,0.203036651
0.06885416667,0.2093423307
0.068875,0.2160743177
0.06889583333,0.2235734761
0.06891666667,0.231331408
0.0689375,0.239080295
0.06895833333,0.2466408908
0.06897916667,0.253908217
0.069,0.2608695924
0.06902083333,0.2672918439
0.06904166667,0.2733306289
0.0690625,0.2787061036
0.06908333333,0.2833861113
0.06910416667,0.287499994
0.069125,0.2910382748
0.06914583333,0.2939902842
0.06916666667,0.2962180078
0.0691875,0.2978929281
0.06920833333,0.298833698
0.06922916667,0.2990652323
0.06925,0.2987537384
0.06927083333,0.298156023
0.06929166667,0.2972368598
0.0693125,0.2960782647
0.06933333333,0.2947121263
0.06935416667,0.29327631
0.069375,0.2919121981
0.06939583333,0.2906625867
0.06941666667,0.2896403074
0.0694375,0.2889734507
0.06945833333,0.2885349691
0.06947916667,0.288474232
0.0695,0.2889060378
0.06952083333,0.2898203731
0.06954166667,0.2912083268
0.0695625,0.2930616736
0.06958333333,0.2954914868
0.06960416667,0.2984671295
0.069625,0.3017961979
0.06964583333,0.3054748178
0.06966666667,0.3093526661
0.0696875,0.3132988811
0.06970833333,0.3174177706
0.06972916667,0.321485132
0.06975,0.3255369365
0.06977083333,0.3297225535
0.06979166667,0.3339540958
0.0698125,0.3381724358
0.06983333333,0.3426315486
0.06985416667,0.3469938934
0.069875,0.351262033
0.06989583333,0.3555881977
0.06991666667,0.359898448
0.0699375,0.3643683493
0.06995833333,0.3692077994
0.06997916667,0.3738503456
0.07,0.3784943223
0.07002083333,0.3839118183
0.07004166667,0.3898624778
0.0700625,0.3956451714
0.07008333333,0.4010111094
0.07010416667,0.406475991
0.070125,0.4119790792
0.07014583333,0.4174562097
0.07016666667,0.4228179157
0.0701875,0.4280112982
0.07020833333,0.4328406155
0.07022916667,0.4371620417
0.07025,0.4411041141
0.07027083333,0.4445342422
0.07029166667,0.4477408826
0.0703125,0.4508365691
0.07033333333,0.4537677765
0.07035416667,0.4563835859
0.070375,0.4586036205
0.07039583333,0.4607442319
0.07041666667,0.4625649452
0.0704375,0.4642163813
0.07045833333,0.4657692313
0.07047916667,0.4671221077
0.0705,0.4688020945
0.07052083333,0.4704126418
0.07054166667,0.4719231427
0.0705625,0.4734354317
0.07058333333,0.4750723243
0.07060416667,0.4765892625
0.070625,0.4780267775
0.07064583333,0.479542762
0.07066666667,0.4810994565
0.0706875,0.4825715721
0.07070833333,0.4840904176
0.07072916667,0.4855438471
0.07075,0.486980319
0.07077083333,0.4884575307
0.07079166667,0.4898698628
0.0708125,0.4910306036
0.07083333333,0.4924040437
0.07085416667,0.4939625263
0.070875,0.495795399
0.07089583333,0.4978485107
0.07091666667,0.500214994
0.0709375,0.5028592348
0.07095833333,0.5050691962
0.07097916667,0.5074725747
0.071,0.5099797249
0.07102083333,0.5125156641
0.07104166667,0.5138034225
0.0710625,0.51306355
0.07108333333,0.5120217204
0.07110416667,0.5108671188
0.071125,0.5097019672
0.07114583333,0.5084191561
0.07116666667,0.5069810152
0.0711875,0.5054596066
0.07120833333,0.503958106
0.07122916667,0.5024824739
0.07125,0.5010514855
0.07127083333,0.499781549
0.07129166667,0.4986030161
0.0713125,0.4976882041
0.07133333333,0.4969520867
0.07135416667,0.4963392615
0.071375,0.4957483411
0.07139583333,0.4951878488
0.07141666667,0.4946618378
0.0714375,0.4942459762
0.07145833333,0.4940725267
0.07147916667,0.4938793778
0.0715,0.4938523471
0.07152083333,0.4939640164
0.07154166667,0.4941640794
0.0715625,0.4942908287
0.07158333333,0.4942771792
0.07160416667,0.4942083359
0.071625,0.4938457012
0.07164583333,0.493301034
0.07166666667,0.492738843
0.0716875,0.4922329187
0.07170833333,0.491717577
0.07172916667,0.4910739064
0.07175,0.4902899861
0.07177083333,0.4896914065
0.07179166667,0.4892226458
0.0718125,0.489626199
0.07183333333,0.4905339181
0.07185416667,0.4916826189
0.071875,0.4931223392
0.07189583333,0.4938312471
0.07191666667,0.4943968654
0.0719375,0.4949406981
0.07195833333,0.4950075448
0.07197916667,0.4961690903
0.072,0.4975045919
0.07202083333,0.4981113672
0.07204166667,0.4984762073
0.0720625,0.4979777634
0.07208333333,0.4968543053
0.07210416667,0.4953130186
0.072125,0.4933594167
0.07214583333,0.491288811
0.07216666667,0.4890199304
0.0721875,0.4868459702
0.07220833333,0.4849762917
0.07222916667,0.4833815098
0.07225,0.4824294448
0.07227083333,0.4819491804
0.07229166667,0.4820193648
0.0723125,0.4827186763
0.07233333333,0.4836656749
0.07235416667,0.484929055
0.072375,0.4863042235
0.07239583333,0.4878596663
0.07241666667,0.4894452989
0.0724375,0.4909567237
0.07245833333,0.4924830794
0.07247916667,0.4937776327
0.0725,0.494982183
0.07252083333,0.4960424304
0.07254166667,0.4969913065
0.0725625,0.4977373779
0.07258333333,0.4981018305
0.07260416667,0.498310715
0.072625,0.4983283877
0.07264583333,0.4981133342
0.07266666667,0.497767359
0.0726875,0.4972941577
0.07270833333,0.4968102574
0.07272916667,0.4963056743
0.07275,0.4957435131
0.07277083333,0.4953159988
0.07279166667,0.4948984981
0.0728125,0.4947651327
0.07283333333,0.4947019219
0.07285416667,0.4945624471
0.072875,0.4945334196
0.07289583333,0.4945196509
0.07291666667,0.4946321845
0.0729375,0.4947862327
0.07295833333,0.4947784543
0.07297916667,0.4946921468
0.073,0.4944512844
0.07302083333,0.4940104485
0.07304166667,0.4932563305
0.0730625,0.4922528565
0.07308333333,0.4909683764
0.07310416667,0.4894579351
0.073125,0.4875470996
0.07314583333,0.4850594699
0.07316666667,0.4821939468
0.0731875,0.4788043797
0.07320833333,0.4750986099
0.07322916667,0.4710578024
0.07325,0.4667052329
0.07327083333,0.4622258842
0.07329166667,0.45749861
0.0733125,0.4527201951
0.07333333333,0.4479966164
0.07335416667,0.4433172941
0.073375,0.4386921823
0.07339583333,0.4341704547
0.07341666667,0.4296876788
0.0734375,0.4253952205
0.07345833333,0.4213308096
0.07347916667,0.4174741209
0.0735,0.4139788151
0.07352083333,0.4105760455
0.07354166667,0.4073840678
0.0735625,0.4043468237
0.07358333333,0.4012998939
0.07360416667,0.3984237313
0.073625,0.3955973089
0.07364583333,0.3928562701
0.07366666667,0.3901892304
0.0736875,0.3874680698
0.07370833333,0.3846902549
0.07372916667,0.3818334639
0.07375,0.3788322806
0.07377083333,0.3759239614
0.07379166667,0.3731443286
0.0738125,0.3702114224
0.07383333333,0.3674421906
0.07385416667,0.3648193777
0.073875,0.3622971475
0.07389583333,0.3597914875
0.07391666667,0.35718292
0.0739375,0.3545849323
0.07395833333,0.3520035446
0.07397916667,0.349537015
0.074,0.3471708
0.07402083333,0.3448157609
0.07404166667,0.3425623178
0.0740625,0.3403104842
0.07408333333,0.3382129073
0.07410416667,0.3360722363
0.074125,0.3339809179
0.07414583333,0.3320103586
0.07416666667,0.3300780356
0.0741875,0.3282369375
0.07420833333,0.3264278769
0.07422916667,0.3248102069
0.07425,0.3232068419
0.07427083333,0.3216512799
0.07429166667,0.3202161491
0.0743125,0.3187405169
0.07433333333,0.3174179792
0.07435416667,0.316216588
0.074375,0.3150363863
0.07439583333,0.3138408959
0.07441666667,0.3126644194
0.0744375,0.3115791678
0.07445833333,0.3104784489
0.07447916667,0.3095185757
0.0745,0.3085731566
0.07452083333,0.3076235056
0.07454166667,0.3067052066
0.0745625,0.3057682216
0.07458333333,0.3048839569
0.07460416667,0.3038475811
0.074625,0.3027126491
0.07464583333,0.3014547825
0.07466666667,0.2999449074
0.0746875,0.2982420325
0.07470833333,0.296381712
0.07472916667,0.2942031026
0.07475,0.2917864025
0.07477083333,0.2891366184
0.07479166667,0.2861707807
0.0748125,0.2828227282
0.07483333333,0.2793401778
0.07485416667,0.275741905
0.074875,0.2719282508
0.07489583333,0.2680822015
0.07491666667,0.2641935647
0.0749375,0.2602325678
0.07495833333,0.2563973367
0.07497916667,0.2527023256
0.075,0.2491941303
0.07502083333,0.2457968295
0.07504166667,0.2426365167
0.0750625,0.2396090478
0.07508333333,0.2369873971
0.07510416667,0.2346941084
0.075125,0.2326204479
0.07514583333,0.2309838682
0.07516666667,0.2296365201
0.0751875,0.2285759896
0.07520833333,0.2278250456
0.07522916667,0.227346018
0.07525,0.2272460908
0.07527083333,0.2273967117
0.07529166667,0.2279858589
0.0753125,0.2289391309
0.07533333333,0.2301860005
0.07535416667,0.2315828502
0.075375,0.2331564724
0.07539583333,0.2347456217
0.07541666667,0.236489445
0.0754375,0.238223806
0.07545833333,0.2398876399
0.07547916667,0.2415108532
0.0755,0.2430395484
0.07552083333,0.2442802936
0.07554166667,0.2451982796
0.0755625,0.2457062453
0.07558333333,0.2457351685
0.07560416667,0.245289281
0.075625,0.244341597
0.07564583333,0.2428354919
0.07566666667,0.2408462912
0.0756875,0.2384360582
0.07570833333,0.2356620878
0.07572916667,0.2324054688
0.07575,0.2286838144
0.07577083333,0.2246798575
0.07579166667,0.2202931494
0.0758125,0.2156511247
0.07583333333,0.210786894
0.07585416667,0.2055803835
0.075875,0.2002910078
0.07589583333,0.1949582845
0.07591666667,0.189512074
0.0759375,0.1840304285
0.07595833333,0.1785887927
0.07597916667,0.1731573641
0.076,0.1678598225
0.07602083333,0.1627035737
0.07604166667,0.1576351076
0.0760625,0.1526628435
0.07608333333,0.1477524936
0.07610416667,0.1431198865
0.076125,0.1387815773
0.07614583333,0.1345883757
0.07616666667,0.1307957172
0.0761875,0.1274592578
0.07620833333,0.1245249882
0.07622916667,0.122090511
0.07625,0.120091483
0.07627083333,0.1184990406
0.07629166667,0.1173498705
0.0763125,0.1165772974
0.07633333333,0.116303876
0.07635416667,0.1163416803
0.076375,0.1165622026
0.07639583333,0.1171343327
0.07641666667,0.1178706661
0.0764375,0.1187194958
0.07645833333,0.1197125986
0.07647916667,0.1208248883
0.0765,0.1221699417
0.07652083333,0.1235484406
0.07654166667,0.1249148473
0.0765625,0.1262684166
0.07658333333,0.1275204718
0.07660416667,0.1285593361
0.076625,0.1294479221
0.07664583333,0.130099982
0.07666666667,0.1303908527
0.0766875,0.1302542835
0.07670833333,0.12974222
0.07672916667,0.1287496239
0.07675,0.1273594648
0.07677083333,0.1255100518
0.07679166667,0.1233267561
0.0768125,0.1207713783
0.07683333333,0.1179020405
0.07685416667,0.1148538366
0.076875,0.1116138101
0.07689583333,0.1082986742
0.07691666667,0.1047828048
0.0769375,0.1011389419
0.07695833333,0.09744923562
0.07697916667,0.09366670251
0.077,0.09000024199
0.07702083333,0.08635153621
0.07704166667,0.08300881833
0.0770625,0.07993516326
0.07708333333,0.0768725574
0.07710416667,0.07402126491
0.077125,0.0713205412
0.07714583333,0.0689708516
0.07716666667,0.06687508523
0.0771875,0.06507281214
0.07720833333,0.06361646205
0.07722916667,0.06230529025
0.07725,0.06126248464
0.07727083333,0.06022304296
0.07729166667,0.05934932455
0.0773125,0.05869034678
0.07733333333,0.05802803487
0.07735416667,0.05743197352
0.077375,0.05671674386
0.07739583333,0.05586304516
0.07741666667,0.05471814051
0.0774375,0.05328756198
0.07745833333,0.05162996426
0.07747916667,0.04979395121
0.0775,0.04780830815
0.07752083333,0.04546487331
0.07754166667,0.04289149866
0.0775625,0.03999149799
0.07758333333,0.03671081364
0.07760416667,0.03315693885
0.077625,0.02918572351
0.07764583333,0.02499629185
0.07766666667,0.02050629072
0.0776875,0.01573727652
0.07770833333,0.01078111958
0.07772916667,0.005535442382
0.07775,0.0001572910696
0.07777083333,-0.005403005518
0.07779166667,-0.0110634435
0.0778125,-0.01670010574
0.07783333333,-0.02229999378
0.07785416667,-0.02777246013
0.077875,-0.0331103839
0.07789583333,-0.03854380548
0.07791666667,-0.04407019541
0.0779375,-0.04959598929
0.07795833333,-0.05505603924
0.07797916667,-0.06022578105
0.078,-0.06514674425
0.07802083333,-0.0699153915
0.07804166667,-0.0744991079
0.0780625,-0.07908771187
0.07808333333,-0.083828412
0.07810416667,-0.08857328445
0.078125,-0.0933502093
0.07814583333,-0.09814466536
0.07816666667,-0.1030270979
0.0781875,-0.1081805527
0.07820833333,-0.1134155914
0.07822916667,-0.1188740954
0.07825,-0.124444373
0.07827083333,-0.1300885528
0.07829166667,-0.1358604729
0.0783125,-0.1416272074
0.07833333333,-0.1473022103
0.07835416667,-0.1527314186
0.078375,-0.1580855101
0.07839583333,-0.1633462906
0.07841666667,-0.1684253067
0.0784375,-0.1732242852
0.07845833333,-0.1778151095
0.07847916667,-0.1821902394
0.0785,-0.1861811429
0.07852083333,-0.1898486316
0.07854166667,-0.1931303889
0.0785625,-0.1961987764
0.07858333333,-0.1990591139
0.07860416667,-0.2017121762
0.078625,-0.204134658
0.07864583333,-0.2062660903
0.07866666667,-0.2082918733
0.0786875,-0.210090667
0.07870833333,-0.2118078172
0.07872916667,-0.2134235054
0.07875,-0.2152114213
0.07877083333,-0.2172915936
0.07879166667,-0.2194369733
0.0788125,-0.221938163
0.07883333333,-0.2248561382
0.07885416667,-0.2282048017
0.078875,-0.2318509966
0.07889583333,-0.2358187139
0.07891666667,-0.2401832193
0.0789375,-0.2448430657
0.07895833333,-0.24956429
0.07897916667,-0.2542657852
0.079,-0.2587909997
0.07902083333,-0.2630354762
0.07904166667,-0.26713413
0.0790625,-0.2708904743
0.07908333333,-0.2744719982
0.07910416667,-0.2778529823
0.079125,-0.2808688283
0.07914583333,-0.2835275829
0.07916666667,-0.2857119143
0.0791875,-0.2873715758
0.07920833333,-0.2885054052
0.07922916667,-0.2892226875
0.07925,-0.2895622253
0.07927083333,-0.2895126045
0.07929166667,-0.2891212702
0.0793125,-0.2885615826
0.07933333333,-0.287756592
0.07935416667,-0.2866843343
0.079375,-0.2855609357
0.07939583333,-0.284578383
0.07941666667,-0.283755362
0.0794375,-0.2832213342
0.07945833333,-0.2829838693
0.07947916667,-0.2830073535
0.0795,-0.2835035622
0.07952083333,-0.2843469977
0.07954166667,-0.2855399251
0.0795625,-0.2873910069
0.07958333333,-0.2897175252
0.07960416667,-0.2925956547
0.079625,-0.2958781123
0.07964583333,-0.2994304895
0.07966666667,-0.303271234
0.0796875,-0.3070324361
0.07970833333,-0.3109775186
0.07972916667,-0.3151354194
0.07975,-0.3193119466
0.07977083333,-0.3235025406
0.07979166667,-0.3274698853
0.0798125,-0.3312835991
0.07983333333,-0.3347764015
0.07985416667,-0.3380966485
0.079875,-0.3414519429
0.07989583333,-0.3446189463
0.07991666667,-0.3476946652
0.0799375,-0.3505199254
0.07995833333,-0.353005439
0.07997916667,-0.3549566865
0.08,-0.3568479419
0.08002083333,-0.3586430848
0.08004166667,-0.360494405
0.0800625,-0.3623752296
0.08008333333,-0.3643084764
0.08010416667,-0.3661779463
0.080125,-0.3682312369
0.08014583333,-0.3704852462
0.08016666667,-0.3730575442
0.0801875,-0.3756882846
0.08020833333,-0.3784349859
0.08022916667,-0.3811087012
0.08025,-0.383811146
0.08027083333,-0.3866148889
0.08029166667,-0.3893132508
0.0803125,-0.3921093047
0.08033333333,-0.3948084712
0.08035416667,-0.3975283802
0.080375,-0.4001702666
0.08039583333,-0.4026432037
0.08041666667,-0.4052456617
0.0804375,-0.4077308476
0.08045833333,-0.4100863636
0.08047916667,-0.4122867882
0.0805,-0.4144552648
0.08052083333,-0.4165748954
0.08054166667,-0.4185100794
0.0805625,-0.4202598929
0.08058333333,-0.4219802022
0.08060416667,-0.4236961901
0.080625,-0.4252569675
0.08064583333,-0.4268735945
0.08066666667,-0.4284019172
0.0806875,-0.4298314452
0.08070833333,-0.4312303066
0.08072916667,-0.4325661361
0.08075,-0.433902204
0.08077083333,-0.435112536
0.08079166667,-0.4363282919
0.0808125,-0.4375284314
0.08083333333,-0.4384991825
0.08085416667,-0.4394368529
0.080875,-0.4402870238
0.08089583333,-0.4410381317
0.08091666667,-0.4417313635
0.0809375,-0.442178905
0.08095833333,-0.4425232708
0.08097916667,-0.442851305
0.081,-0.4430571198
0.08102083333,-0.4432091713
0.08104166667,-0.4432847798
0.0810625,-0.4432627857
0.08108333333,-0.4432994723
0.08110416667,-0.4433783293
0.081125,-0.4438363612
0.08114583333,-0.4444287717
0.08116666667,-0.445273608
0.0811875,-0.4463090599
0.08120833333,-0.4468572736
0.08122916667,-0.4470445216
0.08125,-0.4466565549
0.08127083333,-0.4457497001
0.08129166667,-0.4444641471
0.0813125,-0.442578733
0.08133333333,-0.4403349459
0.08135416667,-0.4376479685
0.081375,-0.4346035421
0.08139583333,-0.4311618805
0.08141666667,-0.4272962213
0.0814375,-0.423232168
0.08145833333,-0.4188337028
0.08147916667,-0.4142817557
0.0815,-0.4094078541
0.08152083333,-0.4043190181
0.08154166667,-0.3992081583
0.0815625,-0.3938859105
0.08158333333,-0.3886280358
0.08160416667,-0.3834062815
0.081625,-0.3781245053
0.08164583333,-0.3728735745
0.08166666667,-0.3678098321
0.0816875,-0.3628663719
0.08170833333,-0.3581917882
0.08172916667,-0.3538882434
0.08175,-0.3496970534
0.08177083333,-0.3457900882
0.08179166667,-0.342102468
0.0818125,-0.3386758268
0.08183333333,-0.3355498016
0.08185416667,-0.3324921131
0.081875,-0.3297181726
0.08189583333,-0.327069819
0.08191666667,-0.3245615959
0.0819375,-0.3222466707
0.08195833333,-0.3201654851
0.08197916667,-0.3184494674
0.082,-0.3168230355
0.08202083333,-0.3154564202
0.08204166667,-0.3141779304
0.0820625,-0.3132463396
0.08208333333,-0.3127171695
0.08210416667,-0.3125661612
0.082125,-0.3132598698
0.08214583333,-0.3143239617
0.08216666667,-0.315528363
0.0821875,-0.3169549108
0.08220833333,-0.3190115392
0.08222916667,-0.3221005201
0.08225,-0.3260948658
0.08227083333,-0.3307768106
0.08229166667,-0.335778445
0.0823125,-0.3411343694
0.08233333333,-0.3466649055
0.08235416667,-0.3524753749
0.082375,-0.3585405648
0.08239583333,-0.3644967079
0.08241666667,-0.3705154657
0.0824375,-0.3763104379
0.08245833333,-0.3818171024
0.08247916667,-0.3870368898
0.0825,-0.391946286
0.08252083333,-0.3965848088
0.08254166667,-0.4007512629
0.0825625,-0.4047136605
0.08258333333,-0.4082779288
0.08260416667,-0.4114613533
0.082625,-0.4142781198
0.08264583333,-0.416751951
0.08266666667,-0.4189823568
0.0826875,-0.4209761024
0.08270833333,-0.4228232503
0.08272916667,-0.424477309
0.08275,-0.4260472655
0.08277083333,-0.4275490642
0.08279166667,-0.4290804267
0.0828125,-0.4307080805
0.08283333333,-0.432313174
0.08285416667,-0.4339452088
0.082875,-0.435565412
0.08289583333,-0.4373244643
0.08291666667,-0.4390741289
0.0829375,-0.4407622814
0.08295833333,-0.4424246848
0.08297916667,-0.4440471828
0.083,-0.4455921054
0.08302083333,-0.4468607605
0.08304166667,-0.4479332864
0.0830625,-0.4488075078
0.08308333333,-0.4493258297
0.08310416667,-0.4494200051
0.083125,-0.4490792751
0.08314583333,-0.44826442
0.08316666667,-0.4470139444
0.0831875,-0.4452164173
0.08320833333,-0.4429056942
0.08322916667,-0.4402212203
0.08325,-0.4372096062
0.08327083333,-0.4338162839
0.08329166667,-0.4301638603
0.0833125,-0.4263424277
0.08333333333,-0.4224088788
0.08335416667,-0.418397963
0.083375,-0.4143304229
0.08339583333,-0.41044873
0.08341666667,-0.406637907
0.0834375,-0.4029663205
0.08345833333,-0.3995064497
0.08347916667,-0.3961423039
0.0835,-0.3930654824
0.08352083333,-0.3900713921
0.08354166667,-0.3872102797
0.0835625,-0.3844038844
0.08358333333,-0.3815363348
0.08360416667,-0.3787680268
0.083625,-0.3760505617
0.08364583333,-0.3734007478
0.08366666667,-0.3707594872
0.0836875,-0.3681410551
0.08370833333,-0.3655117154
0.08372916667,-0.362795651
0.08375,-0.3600077629
0.08377083333,-0.3571665883
0.08379166667,-0.3543171883
0.0838125,-0.3514012992
0.08383333333,-0.3485753238
0.08385416667,-0.3456526697
0.083875,-0.3427018523
0.08389583333,-0.3397480547
0.08391666667,-0.3368321061
0.0839375,-0.3339940906
0.08395833333,-0.3310530782
0.08397916667,-0.3282307386
0.084,-0.3255082667
0.08402083333,-0.3228348792
0.08404166667,-0.320289135
0.0840625,-0.3179489374
0.08408333333,-0.3157275021
0.08410416667,-0.3134774864
0.084125,-0.3115413487
0.08414583333,-0.3096892834
0.08416666667,-0.3077689409
0.0841875,-0.3060710728
0.08420833333,-0.3044341803
0.08422916667,-0.3028701842
0.08425,-0.3014445901
0.08427083333,-0.300152123
0.08429166667,-0.2992279232
0.0843125,-0.2985511422
0.08433333333,-0.2981666327
0.08435416667,-0.2981484234
0.084375,-0.2983794808
0.08439583333,-0.2989457548
0.08441666667,-0.2995786369
0.0844375,-0.3002243042
0.08445833333,-0.3010377884
0.08447916667,-0.3018018305
0.0845,-0.3025231659
0.08452083333,-0.3031664789
0.08454166667,-0.303663969
0.0845625,-0.3040314019
0.08458333333,-0.3041737676
0.08460416667,-0.3042107224
0.084625,-0.3040396869
0.08464583333,-0.3035369217
0.08466666667,-0.3026588559
0.0846875,-0.3014268279
0.08470833333,-0.2998124659
0.08472916667,-0.2978077233
0.08475,-0.2954932153
0.08477083333,-0.2928835154
0.08479166667,-0.2898494601
0.0848125,-0.2865369618
0.08483333333,-0.2830007076
0.08485416667,-0.2792673707
0.084875,-0.2753985226
0.08489583333,-0.2714464664
0.08491666667,-0.2676619291
0.0849375,-0.2639917731
0.08495833333,-0.2605186403
0.08497916667,-0.2573959827
0.085,-0.2545380592
0.08502083333,-0.2519991696
0.08504166667,-0.24984321
0.0850625,-0.2480957806
0.08508333333,-0.2468558997
0.08510416667,-0.2459511161
0.085125,-0.2454272211
0.08514583333,-0.2452762127
0.08516666667,-0.2455107421
0.0851875,-0.2462580502
0.08520833333,-0.2474152148
0.08522916667,-0.2489148527
0.08525,-0.2507607639
0.08527083333,-0.2528999746
0.08529166667,-0.2552599907
0.0853125,-0.2578060031
0.08533333333,-0.2605291307
0.08535416667,-0.2632007003
0.085375,-0.2658888698
0.08539583333,-0.2686387599
0.08541666667,-0.2712635994
0.0854375,-0.2737210989
0.08545833333,-0.2758489549
0.08547916667,-0.2776181698
0.0855,-0.2790239155
0.08552083333,-0.2800062895
0.08554166667,-0.2805809975
0.0855625,-0.2808485031
0.08558333333,-0.2806350291
0.08560416667,-0.2799337208
0.085625,-0.2787090838
0.08564583333,-0.2768310308
0.08566666667,-0.2744447291
0.0856875,-0.2715345919
0.08570833333,-0.2682469785
0.08572916667,-0.2644722164
0.08575,-0.2603586614
0.08577083333,-0.2559896708
0.08579166667,-0.2511763871
0.0858125,-0.2462837249
0.08583333333,-0.2411671579
0.08585416667,-0.23584795
0.085875,-0.2304723561
0.08589583333,-0.2249844074
0.08591666667,-0.2194897979
0.0859375,-0.2139495611
0.08595833333,-0.208331883
0.08597916667,-0.2027249187
0.086,-0.1971549541
0.08602083333,-0.1916233301
0.08604166667,-0.1862168759
0.0860625,-0.1809003502
0.08608333333,-0.1757157594
0.08610416667,-0.1707449555
0.086125,-0.165827468
0.08614583333,-0.1611554027
0.08616666667,-0.156745702
0.0861875,-0.1525164098
0.08620833333,-0.148666352
0.08622916667,-0.1451524198
0.08625,-0.1419461966
0.08627083333,-0.139069438
0.08629166667,-0.1365323067
0.0863125,-0.1343391687
0.08633333333,-0.1325170994
0.08635416667,-0.1310113668
0.086375,-0.1298424602
0.08639583333,-0.1290777773
0.08641666667,-0.1285871267
0.0864375,-0.1282690763
0.08645833333,-0.1281327158
0.08647916667,-0.1281567663
0.0865,-0.1283719838
0.08652083333,-0.1286752075
0.08654166667,-0.1289642453
0.0865625,-0.129330337
0.08658333333,-0.1296124607
0.08660416667,-0.1297983527
0.086625,-0.129942596
0.08664583333,-0.1298925877
0.08666666667,-0.1297252178
0.0866875,-0.1295241714
0.08670833333,-0.1291286647
0.08672916667,-0.1284854561
0.08675,-0.1275504678
0.08677083333,-0.1263688952
0.08679166667,-0.1249150932
0.0868125,-0.1231584847
0.08683333333,-0.1210934892
0.08685416667,-0.1188231334
0.086875,-0.1163195819
0.08689583333,-0.1133288443
0.08691666667,-0.110277921
0.0869375,-0.1069929451
0.08695833333,-0.1035512984
0.08697916667,-0.1003817618
0.087,-0.09724251181
0.08702083333,-0.09427329153
0.08704166667,-0.09146311879
0.0870625,-0.08889983594
0.08708333333,-0.08664958179
0.08710416667,-0.08463887125
0.087125,-0.08292542398
0.08714583333,-0.08141125739
0.08716666667,-0.080117248
0.0871875,-0.07888436317
0.08720833333,-0.07782782614
0.08722916667,-0.07692690939
0.08725,-0.07599362731
0.08727083333,-0.07526189089
0.08729166667,-0.07444900274
0.0873125,-0.07356090099
0.08733333333,-0.07283651084
0.08735416667,-0.07203561813
0.087375,-0.07126585394
0.08739583333,-0.07061345875
0.08741666667,-0.06987962872
0.0874375,-0.06912767887
0.08745833333,-0.06823462993
0.08747916667,-0.06730672717
0.0875,-0.06649902463
0.08752083333,-0.06550641358
0.08754166667,-0.06437036395
0.0875625,-0.0630466342
0.08758333333,-0.06140144169
0.08760416667,-0.05958639458
0.087625,-0.0576431267
0.08764583333,-0.05564751849
0.08766666667,-0.05362812802
0.0876875,-0.05139163882
0.08770833333,-0.04904468358
0.08772916667,-0.04645077512
0.08775,-0.04352582991
0.08777083333,-0.04056723416
0.08779166667,-0.03739437833
0.0878125,-0.03420152515
0.08783333333,-0.03093815967
0.08785416667,-0.02742407471
0.087875,-0.0238503702
0.08789583333,-0.02007085085
0.08791666667,-0.01624333486
0.0879375,-0.01245845295
0.08795833333,-0.008709066547
0.08797916667,-0.005138616078
0.088,-0.001617632806
0.08802083333,0.001875673421
0.08804166667,0.005451097153
0.0880625,0.009151688777
0.08808333333,0.01298964024
0.08810416667,0.01700813323
0.088125,0.02146299556
0.08814583333,0.02635170147
0.08816666667,0.0313767083
0.0881875,0.03660297021
0.08820833333,0.04203915969
0.08822916667,0.0476482138
0.08825,0.05331594497
0.08827083333,0.05900812894
0.08829166667,0.06475738436
0.0883125,0.07054180652
0.08833333333,0.07640918344
0.08835416667,0.08223454654
0.088375,0.08790189028
0.08839583333,0.09341403842
0.08841666667,0.09871333092
0.0884375,0.1038431004
0.08845833333,0.108842358
0.08847916667,0.1137226298
0.0885,0.1185236201
0.08852083333,0.1231587455
0.08854166667,0.1275185645
0.0885625,0.1315603554
0.08858333333,0.1354021877
0.08860416667,0.1389980018
0.088625,0.1423826963
0.08864583333,0.1457679123
0.08866666667,0.1490010023
0.0886875,0.1521755457
0.08870833333,0.1552951634
0.08872916667,0.1583967805
0.08875,0.161693871
0.08877083333,0.1652364433
0.08879166667,0.1693495959
0.0888125,0.1739287227
0.08883333333,0.1790948212
0.08885416667,0.184862718
0.088875,0.1912499815
0.08889583333,0.198767066
0.08891666667,0.2067955434
0.0889375,0.214988932
0.08895833333,0.2232078463
0.08897916667,0.2312130481
0.089,0.2389082909
0.08902083333,0.2462044805
0.08904166667,0.2531160116
0.0890625,0.2594325244
0.08908333333,0.2654704452
0.08910416667,0.271109134
0.089125,0.2759283483
0.08914583333,0.2798736989
0.08916666667,0.2829147577
0.0891875,0.2852579951
0.08920833333,0.2868186831
0.08922916667,0.2875134051
0.08925,0.2874616683
0.08927083333,0.286870271
0.08929166667,0.2858680487
0.0893125,0.2844688892
0.08933333333,0.2827956378
0.08935416667,0.2809629142
0.089375,0.2791303396
0.08939583333,0.2772941589
0.08941666667,0.2755834162
0.0894375,0.2741272151
0.08945833333,0.2730107605
0.08947916667,0.2722349465
0.0895,0.2719349861
0.08952083333,0.2722491026
0.08954166667,0.2730544209
0.0895625,0.2743674219
0.08958333333,0.2761365473
0.08960416667,0.2784279585
0.089625,0.281123966
0.08964583333,0.2839511931
0.08966666667,0.2871176004
0.0896875,0.2905581892
0.08970833333,0.2940637767
0.08972916667,0.2976687551
0.08975,0.3011665642
0.08977083333,0.3044942021
0.08979166667,0.3076491654
0.0898125,0.3106707633
0.08983333333,0.3137556911
0.08985416667,0.3167434633
0.089875,0.3196917176
0.08989583333,0.3225912452
0.08991666667,0.3256675899
0.0899375,0.3290084898
0.08995833333,0.3322405219
0.08997916667,0.3360953629
0.09,0.340724051
0.09002083333,0.3449761868
0.09004166667,0.3492679298
0.0900625,0.3531644642
0.09008333333,0.3570744395
0.09010416667,0.3614318967
0.090125,0.3659018874
0.09014583333,0.3704420328
0.09016666667,0.3749629259
0.0901875,0.3792788982
0.09020833333,0.3834262192
0.09022916667,0.3874388933
0.09025,0.3913812637
0.09027083333,0.3953652978
0.09029166667,0.3993879557
0.0903125,0.4034995139
0.09033333333,0.4076363444
0.09035416667,0.4119128287
0.090375,0.4164650142
0.09039583333,0.421205312
0.09041666667,0.4260110557
0.0904375,0.430760771
0.09045833333,0.435561955
0.09047916667,0.4404975474
0.0905,0.4454428256
0.09052083333,0.4501339793
0.09054166667,0.4546776712
0.0905625,0.4590956271
0.09058333333,0.4631324112
0.09060416667,0.4669640064
0.090625,0.470575124
0.09064583333,0.4739701152
0.09066666667,0.4770810604
0.0906875,0.4798754454
0.09070833333,0.4825531244
0.09072916667,0.4848832488
0.09075,0.4870446622
0.09077083333,0.4891061485
0.09079166667,0.4909821451
0.0908125,0.4927954376
0.09083333333,0.4945846498
0.09085416667,0.4965722859
0.090875,0.4990257025
0.09089583333,0.5022072792
0.09091666667,0.5054862499
0.0909375,0.5084707141
0.09095833333,0.5117664337
0.09097916667,0.5150216222
0.091,0.5185039043
0.09102083333,0.5224312544
0.09104166667,0.5268182755
0.0910625,0.5314656496
0.09108333333,0.5354246497
0.09110416667,0.5386584997
0.091125,0.5409943461
0.09114583333,0.5426285863
0.09116666667,0.5438504815
0.0911875,0.5443285108
0.09120833333,0.5443283319
0.09122916667,0.5439189672
0.09125,0.5430483818
0.09127083333,0.541744113
0.09129166667,0.5401169062
0.0913125,0.5381057262
0.09133333333,0.5359346867
0.09135416667,0.5336508155
0.091375,0.5310339332
0.09139583333,0.5283470154
0.09141666667,0.5254724026
0.0914375,0.5224391818
0.09145833333,0.5193864703
0.09147916667,0.5161786675
0.0915,0.5129743218
0.09152083333,0.5096647143
0.09154166667,0.5063753724
0.0915625,0.5031266212
0.09158333333,0.4997714162
0.09160416667,0.4965392649
0.091625,0.4933013618
0.09164583333,0.4900864959
0.09166666667,0.4870076478
0.0916875,0.4837757349
0.09170833333,0.4806512594
0.09172916667,0.4777433574
0.09175,0.4749308527
0.09177083333,0.4724598229
0.09179166667,0.4702809751
0.0918125,0.4684773386
0.09183333333,0.4668372869
0.09185416667,0.4654714167
0.091875,0.4646899402
0.09189583333,0.4641892016
0.09191666667,0.4651616216
0.0919375,0.4673146307
0.09195833333,0.4697555006
0.09197916667,0.4727950692
0.092,0.4761293828
0.09202083333,0.4798578322
0.09204166667,0.4831417203
0.0920625,0.4860113561
0.09208333333,0.4891922176
0.09210416667,0.4917323887
0.092125,0.4935221672
0.09214583333,0.4945377707
0.09216666667,0.4948473871
0.0921875,0.4948010445
0.09220833333,0.4944215119
0.09222916667,0.4940161109
0.09225,0.493594259
0.09227083333,0.4932612479
0.09229166667,0.4933405817
0.0923125,0.4936055243
0.09233333333,0.4941806495
0.09235416667,0.4951449335
0.092375,0.4962778389
0.09239583333,0.4976035357
0.09241666667,0.4989383519
0.0924375,0.50028795
0.09245833333,0.5018393993
0.09247916667,0.5033531785
0.0925,0.5048474669
0.09252083333,0.506155014
0.09254166667,0.5073857903
0.0925625,0.5084758997
0.09258333333,0.509251833
0.09260416667,0.5098122358
0.092625,0.5100343227
0.09264583333,0.5100462437
0.09266666667,0.5098922849
0.0926875,0.5095034838
0.09270833333,0.5091069341
0.09272916667,0.5085191727
0.09275,0.5078709126
0.09277083333,0.5072680712
0.09279166667,0.5065464377
0.0928125,0.5059522986
0.09283333333,0.5054348707
0.09285416667,0.5050387383
0.092875,0.5049331784
0.09289583333,0.5046703815
0.09291666667,0.5045312643
0.0929375,0.5045312643
0.09295833333,0.5044337511
0.09297916667,0.5044297576
0.093,0.5043489337
0.09302083333,0.5041840076
0.09304166667,0.5040526986
0.0930625,0.5037847161
0.09308333333,0.5032466054
0.09310416667,0.5024105906
