time,data
0,1.36143905e-08
2.083333333e-05,2.258656373e-08
4.166666667e-05,3.110422142e-08
6.25e-05,3.910891522e-08
8.333333333e-05,4.713486135e-08
0.0001041666667,5.55352706e-08
0.000125,6.444020073e-08
0.0001458333333,7.36565795e-08
0.0001666666667,8.268568052e-08
0.0001875,9.148075719e-08
0.0002083333333,1.000759156e-07
0.0002291666667,1.090794868e-07
0.00025,1.187995622e-07
0.0002708333333,1.293340688e-07
0.0002916666667,1.404022498e-07
0.0003125,1.514299726e-07
0.0003333333333,1.622960326e-07
0.0003541666667,1.728637642e-07
0.000375,1.835750112e-07
0.0003958333333,1.945183357e-07
0.0004166666667,2.056586794e-07
0.0004375,2.16671566e-07
0.0004583333333,2.269869839e-07
0.0004791666667,2.365273133e-07
0.0005,2.451434682e-07
0.0005208333333,2.533254246e-07
0.0005416666667,2.612496814e-07
0.0005625,2.691309078e-07
0.0005833333333,2.768686898e-07
0.0006041666667,2.840790501e-07
0.000625,2.906472218e-07
0.0006458333333,2.962596852e-07
0.0006666666667,3.012563923e-07
0.0006875,3.057045603e-07
0.0007083333333,3.098829779e-07
0.0007291666667,3.136227065e-07
0.00075,3.163519864e-07
0.0007708333333,3.176282917e-07
0.0007916666667,3.167755267e-07
0.0008125,3.141612979e-07
0.0008333333333,3.100403774e-07
0.0008541666667,3.051777071e-07
0.000875,2.997037143e-07
0.0008958333333,2.931300287e-07
0.0009166666667,2.849908753e-07
0.0009375,2.746153029e-07
0.0009583333333,2.626826472e-07
0.0009791666667,2.498952938e-07
0.001,2.37294401e-07
0.001020833333,2.249720694e-07
0.001041666667,2.119332407e-07
0.0010625,1.97174046e-07
0.001083333333,1.796822744e-07
0.001104166667,1.601358264e-07
0.001125,1.394267883e-07
0.001145833333,1.186761054e-07
0.001166666667,9.774701226e-08
0.0011875,7.546599079e-08
0.001208333333,5.068552866e-08
0.001229166667,2.286525991e-08
0.00125,-6.691872834e-09
0.001270833333,-3.644913704e-08
0.001291666667,-6.490382276e-08
0.0013125,-9.228331521e-08
0.001333333333,-1.198423689e-07
0.001354166667,-1.487582608e-07
0.001375,-1.795193043e-07
0.001395833333,-2.106574044e-07
0.001416666667,-2.409984461e-07
0.0014375,-2.694538921e-07
0.001458333333,-2.969170794e-07
0.001479166667,-3.249931808e-07
0.0015,-3.548760787e-07
0.001520833333,-3.868855174e-07
0.001541666667,-4.193874474e-07
0.0015625,-4.510846736e-07
0.001583333333,-4.808538847e-07
0.001604166667,-5.09167478e-07
0.001625,-5.370862368e-07
0.001645833333,-5.651228321e-07
0.001666666667,-5.931909186e-07
0.0016875,-6.196869435e-07
0.001708333333,-6.436129638e-07
0.001729166667,-6.640756851e-07
0.00175,-6.817980989e-07
0.001770833333,-6.977770113e-07
0.001791666667,-7.130008157e-07
0.0018125,-7.279375041e-07
0.001833333333,-7.418387327e-07
0.001854166667,-7.542581102e-07
0.001875,-7.642379387e-07
0.001895833333,-7.720307167e-07
0.001916666667,-7.781055729e-07
0.0019375,-7.830581694e-07
0.001958333333,-7.875166261e-07
0.001979166667,-7.904860126e-07
0.002,-7.912007618e-07
0.002020833333,-7.87777708e-07
0.002041666667,-7.797605122e-07
0.0020625,-7.675261031e-07
0.002083333333,-7.523191243e-07
0.002104166667,-7.358159451e-07
0.002125,-7.179544355e-07
0.002145833333,-6.980986313e-07
0.002166666667,-6.745203223e-07
0.0021875,-6.466451055e-07
0.002208333333,-6.156585641e-07
0.002229166667,-5.835986485e-07
0.00225,-5.527510325e-07
0.002270833333,-5.228190503e-07
0.002291666667,-4.920619858e-07
0.0023125,-4.574996524e-07
0.002333333333,-4.178747304e-07
0.002354166667,-3.741339754e-07
0.002375,-3.288406276e-07
0.002395833333,-2.84103578e-07
0.002416666667,-2.394843932e-07
0.0024375,-1.926694324e-07
0.002458333333,-1.407904051e-07
0.002479166667,-8.34218099e-08
0.0025,-2.289731782e-08
0.002520833333,3.706948704e-08
0.002541666667,9.36118596e-08
0.0025625,1.473818685e-07
0.002583333333,2.006511011e-07
0.002604166667,2.564901251e-07
0.002625,3.150472878e-07
0.002645833333,3.741754426e-07
0.002666666667,4.3081846e-07
0.0026875,4.833311209e-07
0.002708333333,5.33385105e-07
0.002729166667,5.840195172e-07
0.00275,6.38007748e-07
0.002770833333,6.954535934e-07
0.002791666667,7.537466331e-07
0.0028125,8.100353739e-07
0.002833333333,8.622707242e-07
0.002854166667,9.11454265e-07
0.002875,9.591446997e-07
0.002895833333,1.006905677e-06
0.002916666667,1.054037853e-06
0.0029375,1.098323423e-06
0.002958333333,1.137465688e-06
0.002979166667,1.170199312e-06
0.003,1.197489496e-06
0.003020833333,1.221198318e-06
0.003041666667,1.243261067e-06
0.0030625,1.264570528e-06
0.003083333333,1.28435795e-06
0.003104166667,1.301622319e-06
0.003125,1.314801239e-06
0.003145833333,1.32404034e-06
0.003166666667,1.329769589e-06
0.0031875,1.333601858e-06
0.003208333333,1.336200057e-06
0.003229166667,1.33694175e-06
0.00325,1.33386925e-06
0.003270833333,1.3239993e-06
0.003291666667,1.30603064e-06
0.0033125,1.280314223e-06
0.003333333333,1.249452907e-06
0.003354166667,1.216416535e-06
0.003375,1.181699645e-06
0.003395833333,1.144383873e-06
0.003416666667,1.100961185e-06
0.0034375,1.050673518e-06
0.003458333333,9.94731522e-07
0.003479166667,9.374261936e-07
0.0035,8.825568898e-07
0.003520833333,8.302297942e-07
0.003541666667,7.773570587e-07
0.0035625,7.186096127e-07
0.003583333333,6.514925417e-07
0.003604166667,5.775359568e-07
0.003625,5.011243616e-07
0.003645833333,4.263652613e-07
0.003666666667,3.525016439e-07
0.0036875,2.758944788e-07
0.003708333333,1.911543848e-07
0.003729166667,9.772587362e-08
0.00375,-9.266699075e-10
0.003770833333,-9.78719541e-08
0.003791666667,-1.88565366e-07
0.0038125,-2.735356759e-07
0.003833333333,-3.570285116e-07
0.003854166667,-4.44253061e-07
0.003875,-5.355725534e-07
0.003895833333,-6.275418514e-07
0.003916666667,-7.147521615e-07
0.0039375,-7.943775131e-07
0.003958333333,-8.694627809e-07
0.003979166667,-9.447056755e-07
0.004,-1.025717211e-06
0.004020833333,-1.111715051e-06
0.004041666667,-1.199289386e-06
0.0040625,-1.282615699e-06
0.004083333333,-1.358931399e-06
0.004104166667,-1.429606414e-06
0.004125,-1.497561243e-06
0.004145833333,-1.5657115e-06
0.004166666667,-1.632577664e-06
0.0041875,-1.694735943e-06
0.004208333333,-1.747898864e-06
0.004229166667,-1.7901192e-06
0.00425,-1.82342319e-06
0.004270833333,-1.850584908e-06
0.004291666667,-1.876045644e-06
0.0043125,-1.899820973e-06
0.004333333333,-1.921931471e-06
0.004354166667,-1.938972218e-06
0.004375,-1.9495792e-06
0.004395833333,-1.953571882e-06
0.004416666667,-1.95221287e-06
0.0044375,-1.948831823e-06
0.004458333333,-1.943541747e-06
0.004479166667,-1.936027957e-06
0.0045,-1.921826652e-06
0.004520833333,-1.896642289e-06
0.004541666667,-1.858862333e-06
0.0045625,-1.808737807e-06
0.004583333333,-1.752372441e-06
0.004604166667,-1.69232078e-06
0.004625,-1.63128675e-06
0.004645833333,-1.565169441e-06
0.004666666667,-1.490039608e-06
0.0046875,-1.404101795e-06
0.004708333333,-1.309939762e-06
0.004729166667,-1.215415523e-06
0.00475,-1.125109975e-06
0.004770833333,-1.040244229e-06
0.004791666667,-9.541161035e-07
0.0048125,-8.590538414e-07
0.004833333333,-7.51550715e-07
0.004854166667,-6.335959029e-07
0.004875,-5.142723012e-07
0.004895833333,-3.97400953e-07
0.004916666667,-2.841399009e-07
0.0049375,-1.657018345e-07
0.004958333333,-3.578906771e-08
0.004979166667,1.075016911e-07
0.005,2.579061231e-07
0.005020833333,4.038191719e-07
0.005041666667,5.396674965e-07
0.0050625,6.648658655e-07
0.005083333333,7.881392321e-07
0.005104166667,9.162643551e-07
0.005125,1.05009758e-06
0.005145833333,1.184587973e-06
0.005166666667,1.30958972e-06
0.0051875,1.423509048e-06
0.005208333333,1.528016355e-06
0.005229166667,1.633917918e-06
0.00525,1.746752787e-06
0.005270833333,1.867456263e-06
0.005291666667,1.989517841e-06
0.0053125,2.103994802e-06
0.005333333333,2.207948455e-06
0.005354166667,2.301623226e-06
0.005375,2.391864882e-06
0.005395833333,2.480899866e-06
0.005416666667,2.567965339e-06
0.0054375,2.64758728e-06
0.005458333333,2.712385367e-06
0.005479166667,2.762038548e-06
0.0055,2.795927685e-06
0.005520833333,2.822578836e-06
0.005541666667,2.844067467e-06
0.0055625,2.864318276e-06
0.005583333333,2.880997954e-06
0.005604166667,2.890151336e-06
0.005625,2.890803671e-06
0.005645833333,2.880178727e-06
0.005666666667,2.863264854e-06
0.0056875,2.84132625e-06
0.005708333333,2.817358791e-06
0.005729166667,2.789891823e-06
0.00575,2.752166665e-06
0.005770833333,2.700677669e-06
0.005791666667,2.628631592e-06
0.0058125,2.541463118e-06
0.005833333333,2.442232244e-06
0.005854166667,2.339661705e-06
0.005875,2.234634849e-06
0.005895833333,2.123161721e-06
0.005916666667,2.000411996e-06
0.0059375,1.861173359e-06
0.005958333333,1.712516791e-06
0.005979166667,1.561361387e-06
0.006,1.417952831e-06
0.006020833333,1.282210178e-06
0.006041666667,1.1451707e-06
0.0060625,9.981382618e-07
0.006083333333,8.316696949e-07
0.006104166667,6.54065218e-07
0.006125,4.71416854e-07
0.006145833333,2.953836429e-07
0.006166666667,1.231255737e-07
0.0061875,-5.472429265e-08
0.006208333333,-2.470686979e-07
0.006229166667,-4.58768028e-07
0.00625,-6.773905739e-07
0.006270833333,-8.91410366e-07
0.006291666667,-1.088637305e-06
0.0063125,-1.271177211e-06
0.006333333333,-1.44992373e-06
0.006354166667,-1.632932367e-06
0.006375,-1.82500969e-06
0.006395833333,-2.013685162e-06
0.006416666667,-2.191683279e-06
0.0064375,-2.349985607e-06
0.006458333333,-2.49716345e-06
0.006479166667,-2.643712605e-06
0.0065,-2.799355116e-06
0.006520833333,-2.965773319e-06
0.006541666667,-3.13086457e-06
0.0065625,-3.287108484e-06
0.006583333333,-3.424977876e-06
0.006604166667,-3.550044539e-06
0.006625,-3.668484624e-06
0.006645833333,-3.783873126e-06
0.006666666667,-3.89747629e-06
0.0066875,-3.996095529e-06
0.006708333333,-4.077208814e-06
0.006729166667,-4.131994956e-06
0.00675,-4.168077339e-06
0.006770833333,-4.190978416e-06
0.006791666667,-4.207384791e-06
0.0068125,-4.221873041e-06
0.006833333333,-4.228635589e-06
0.006854166667,-4.226931651e-06
0.006875,-4.209377494e-06
0.006895833333,-4.178677955e-06
0.006916666667,-4.137125416e-06
0.0069375,-4.088969945e-06
0.006958333333,-4.039151918e-06
0.006979166667,-3.980863312e-06
0.007,-3.912088687e-06
0.007020833333,-3.818400273e-06
0.007041666667,-3.700851266e-06
0.0070625,-3.558442813e-06
0.007083333333,-3.40202655e-06
0.007104166667,-3.241032573e-06
0.007125,-3.074990218e-06
0.007145833333,-2.902958613e-06
0.007166666667,-2.710878789e-06
0.0071875,-2.499801667e-06
0.007208333333,-2.273105792e-06
0.007229166667,-2.044872645e-06
0.00725,-1.828976337e-06
0.007270833333,-1.621047545e-06
0.007291666667,-1.41605517e-06
0.0073125,-1.191359274e-06
0.007333333333,-9.456670682e-07
0.007354166667,-6.802342227e-07
0.007375,-4.120282426e-07
0.007395833333,-1.530154918e-07
0.007416666667,1.011219837e-07
0.0074375,3.593681299e-07
0.007458333333,6.415542089e-07
0.007479166667,9.456683188e-07
0.0075,1.262284059e-06
0.007520833333,1.569623009e-06
0.007541666667,1.852496212e-06
0.0075625,2.116544238e-06
0.007583333333,2.370160701e-06
0.007604166667,2.634822749e-06
0.007625,2.905440169e-06
0.007645833333,3.176544624e-06
0.007666666667,3.428019454e-06
0.0076875,3.653782642e-06
0.007708333333,3.862968242e-06
0.007729166667,4.068076123e-06
0.00775,4.288306172e-06
0.007770833333,4.518021797e-06
0.007791666667,4.749899745e-06
0.0078125,4.965637345e-06
0.007833333333,5.15692409e-06
0.007854166667,5.33047205e-06
0.007875,5.490146577e-06
0.007895833333,5.65030814e-06
0.007916666667,5.80040296e-06
0.0079375,5.937111837e-06
0.007958333333,6.043887424e-06
0.007979166667,6.118442343e-06
0.008,6.165578725e-06
0.008020833333,6.191969533e-06
0.008041666667,6.212280368e-06
0.0080625,6.224034678e-06
0.008083333333,6.230504368e-06
0.008104166667,6.221293461e-06
0.008125,6.192893125e-06
0.008145833333,6.146313353e-06
0.008166666667,6.080918411e-06
0.0081875,6.0106413e-06
0.008208333333,5.930186944e-06
0.008229166667,5.845830401e-06
0.00825,5.740719644e-06
0.008270833333,5.60810804e-06
0.008291666667,5.440682344e-06
0.0083125,5.239136954e-06
0.008333333333,5.020819572e-06
0.008354166667,4.790294952e-06
0.008375,4.559137324e-06
0.008395833333,4.314711987e-06
0.008416666667,4.048470601e-06
0.0084375,3.755967782e-06
0.008458333333,3.440155297e-06
0.008479166667,3.126315733e-06
0.0085,2.820227337e-06
0.008520833333,2.533058705e-06
0.008541666667,2.241946504e-06
0.0085625,1.932478881e-06
0.008583333333,1.591936098e-06
0.008604166667,1.225885967e-06
0.008625,8.578023767e-07
0.008645833333,4.959464945e-07
0.008666666667,1.467445969e-07
0.0086875,-2.135936512e-07
0.008708333333,-5.991066701e-07
0.008729166667,-1.014957775e-06
0.00875,-1.447755835e-06
0.008770833333,-1.864814521e-06
0.008791666667,-2.257596407e-06
0.0088125,-2.617192877e-06
0.008833333333,-2.972047241e-06
0.008854166667,-3.332217375e-06
0.008875,-3.705170002e-06
0.008895833333,-4.075942343e-06
0.008916666667,-4.42018154e-06
0.0089375,-4.735675248e-06
0.008958333333,-5.023120593e-06
0.008979166667,-5.312263056e-06
0.009,-5.613929716e-06
0.009020833333,-5.931199667e-06
0.009041666667,-6.250023489e-06
0.0090625,-6.544396911e-06
0.009083333333,-6.813434084e-06
0.009104166667,-7.050360182e-06
0.009125,-7.279032161e-06
0.009145833333,-7.498828836e-06
0.009166666667,-7.712280421e-06
0.0091875,-7.903979167e-06
0.009208333333,-8.056658771e-06
0.009229166667,-8.17030832e-06
0.00925,-8.242590411e-06
0.009270833333,-8.295266525e-06
0.009291666667,-8.333367987e-06
0.0093125,-8.365753274e-06
0.009333333333,-8.388150491e-06
0.009354166667,-8.388184142e-06
0.009375,-8.366941984e-06
0.009395833333,-8.313606486e-06
0.009416666667,-8.246088328e-06
0.0094375,-8.162224731e-06
0.009458333333,-8.075050573e-06
0.009479166667,-7.975693734e-06
0.0095,-7.851167538e-06
0.009520833333,-7.691125575e-06
0.009541666667,-7.480224212e-06
0.0095625,-7.233515134e-06
0.009583333333,-6.957670848e-06
0.009604166667,-6.674574706e-06
0.009625,-6.38583515e-06
0.009645833333,-6.079344075e-06
0.009666666667,-5.746780971e-06
0.0096875,-5.371525731e-06
0.009708333333,-4.976884611e-06
0.009729166667,-4.574089871e-06
0.00975,-4.192814686e-06
0.009770833333,-3.827195997e-06
0.009791666667,-3.459455911e-06
0.0098125,-3.065925512e-06
0.009833333333,-2.627295089e-06
0.009854166667,-2.163131285e-06
0.009875,-1.688716907e-06
0.009895833333,-1.231962642e-06
0.009916666667,-7.850439374e-07
0.0099375,-3.255850345e-07
0.009958333333,1.661817208e-07
0.009979166667,7.042787047e-07
0.01,1.268908136e-06
0.01002083333,1.832890575e-06
0.01004166667,2.334397777e-06
0.0100625,2.783997161e-06
0.01008333333,3.21269431e-06
0.01010416667,3.656283297e-06
0.010125,4.133441507e-06
0.01014583333,4.620882464e-06
0.01016666667,5.090282684e-06
0.0101875,5.510830306e-06
0.01020833333,5.891046385e-06
0.01022916667,6.256703728e-06
0.01025,6.633239991e-06
0.01027083333,7.039358479e-06
0.01029166667,7.452827504e-06
0.0103125,7.860493497e-06
0.01033333333,8.229354535e-06
0.01035416667,8.565361895e-06
0.010375,8.867672477e-06
0.01039583333,9.149970538e-06
0.01041666667,9.414970918e-06
0.0104375,9.649996173e-06
0.01045833333,9.857752048e-06
0.01047916667,1.002478803e-05
0.0105,1.016115948e-05
0.01052083333,1.027024064e-05
0.01054166667,1.035495643e-05
0.0105625,1.042048279e-05
0.01058333333,1.045491535e-05
0.01060416667,1.04669507e-05
0.010625,1.044669625e-05
0.01064583333,1.041260384e-05
0.01066666667,1.03597913e-05
0.0106875,1.029930536e-05
0.01070833333,1.022452125e-05
0.01072916667,1.012369557e-05
0.01075,9.987786143e-06
0.01077083333,9.796023733e-06
0.01079166667,9.559276805e-06
0.0108125,9.280665836e-06
0.01083333333,8.983074622e-06
0.01085416667,8.681727195e-06
0.010875,8.363567758e-06
0.01089583333,8.023211194e-06
0.01091666667,7.621413715e-06
0.0109375,7.174497114e-06
0.01095833333,6.688083886e-06
0.01097916667,6.21368099e-06
0.011,5.773077191e-06
0.01102083333,5.362987849e-06
0.01104166667,4.961719242e-06
0.0110625,4.511616225e-06
0.01108333333,4.005593837e-06
0.01110416667,3.445733228e-06
0.011125,2.873238145e-06
0.01114583333,2.323429499e-06
0.01116666667,1.793380193e-06
0.0111875,1.271041128e-06
0.01120833333,7.00290343e-07
0.01122916667,8.505823956e-08
0.01125,-5.731902775e-07
0.01127083333,-1.223949539e-06
0.01129166667,-1.838176786e-06
0.0113125,-2.407585725e-06
0.01133333333,-2.945988172e-06
0.01135416667,-3.488505627e-06
0.011375,-4.034718586e-06
0.01139583333,-4.58365048e-06
0.01141666667,-5.110316124e-06
0.0114375,-5.606183095e-06
0.01145833333,-6.086491794e-06
0.01147916667,-6.558198038e-06
0.0115,-7.05242519e-06
0.01152083333,-7.54282928e-06
0.01154166667,-8.026913747e-06
0.0115625,-8.471401088e-06
0.01158333333,-8.88073555e-06
0.01160416667,-9.271455383e-06
0.011625,-9.651618711e-06
0.01164583333,-1.003769194e-05
0.01166666667,-1.040416555e-05
0.0116875,-1.072927898e-05
0.01170833333,-1.098758912e-05
0.01172916667,-1.117601641e-05
0.01175,-1.131643057e-05
0.01177083333,-1.142797737e-05
0.01179166667,-1.154493475e-05
0.0118125,-1.165177673e-05
0.01183333333,-1.175417583e-05
0.01185416667,-1.181678726e-05
0.011875,-1.183043878e-05
0.01189583333,-1.180021627e-05
0.01191666667,-1.173101282e-05
0.0119375,-1.165506637e-05
0.01195833333,-1.157967017e-05
0.01197916667,-1.150460957e-05
0.012,-1.140639688e-05
0.01202083333,-1.124617393e-05
0.01204166667,-1.101266207e-05
0.0120625,-1.06969992e-05
0.01208333333,-1.034245815e-05
0.01210416667,-9.961906471e-06
0.012125,-9.590602531e-06
0.01214583333,-9.218916603e-06
0.01216666667,-8.825420082e-06
0.0121875,-8.384418834e-06
0.01220833333,-7.896202078e-06
0.01222916667,-7.384007858e-06
0.01225,-6.874838164e-06
0.01227083333,-6.383826985e-06
0.01229166667,-5.897514711e-06
0.0123125,-5.393068022e-06
0.01233333333,-4.859637102e-06
0.01235416667,-4.279001587e-06
0.012375,-3.682666147e-06
0.01239583333,-3.073397465e-06
0.01241666667,-2.464332738e-06
0.0124375,-1.827035248e-06
0.01245833333,-1.16468766e-06
0.01247916667,-4.750930884e-07
0.0125,2.17337714e-07
0.01252083333,8.815919728e-07
0.01254166667,1.515235795e-06
0.0125625,2.134175247e-06
0.01258333333,2.763229986e-06
0.01260416667,3.414280854e-06
0.012625,4.070161594e-06
0.01264583333,4.696004908e-06
0.01266666667,5.255027645e-06
0.0126875,5.765356036e-06
0.01270833333,6.246928024e-06
0.01272916667,6.757963092e-06
0.01275,7.306230145e-06
0.01277083333,7.891977475e-06
0.01279166667,8.451862413e-06
0.0128125,8.958692888e-06
0.01283333333,9.403581316e-06
0.01285416667,9.800641237e-06
0.012875,1.019887713e-05
0.01289583333,1.060813065e-05
0.01291666667,1.101431826e-05
0.0129375,1.138731659e-05
0.01295833333,1.168836752e-05
0.01297916667,1.191328647e-05
0.013,1.206445449e-05
0.01302083333,1.219056412e-05
0.01304166667,1.229339614e-05
0.0130625,1.239829817e-05
0.01308333333,1.248313038e-05
0.01310416667,1.253223763e-05
0.013125,1.254902145e-05
0.01314583333,1.252517541e-05
0.01316666667,1.247655655e-05
0.0131875,1.241473274e-05
0.01320833333,1.233639705e-05
0.01322916667,1.222860374e-05
0.01325,1.208269805e-05
0.01327083333,1.187416183e-05
0.01329166667,1.159706335e-05
0.0133125,1.129438715e-05
0.01333333333,1.094475374e-05
0.01335416667,1.058309135e-05
0.013375,1.019372576e-05
0.01339583333,9.751307516e-06
0.01341666667,9.258588761e-06
0.0134375,8.709704161e-06
0.01345833333,8.144609637e-06
0.01347916667,7.615018603e-06
0.0135,7.12565361e-06
0.01352083333,6.666374702e-06
0.01354166667,6.178091553e-06
0.0135625,5.627500741e-06
0.01358333333,4.983441158e-06
0.01360416667,4.296602583e-06
0.013625,3.607961389e-06
0.01364583333,2.974670679e-06
0.01366666667,2.381190825e-06
0.0136875,1.786571602e-06
0.01370833333,1.129639941e-06
0.01372916667,3.899478997e-07
0.01375,-4.101555078e-07
0.01377083333,-1.217738486e-06
0.01379166667,-1.959324209e-06
0.0138125,-2.626887635e-06
0.01383333333,-3.230610901e-06
0.01385416667,-3.811744818e-06
0.013875,-4.425271982e-06
0.01389583333,-5.044092632e-06
0.01391666667,-5.678272373e-06
0.0139375,-6.294835657e-06
0.01395833333,-6.887222753e-06
0.01397916667,-7.456169442e-06
0.014,-7.997538887e-06
0.01402083333,-8.501418961e-06
0.01404166667,-8.971530406e-06
0.0140625,-9.424967175e-06
0.01408333333,-9.8769342e-06
0.01410416667,-1.035412424e-05
0.014125,-1.086610791e-05
0.01414583333,-1.136273386e-05
0.01416666667,-1.178827551e-05
0.0141875,-1.209116726e-05
0.01420833333,-1.226562563e-05
0.01422916667,-1.235716718e-05
0.01425,-1.246097054e-05
0.01427083333,-1.260103181e-05
0.01429166667,-1.280089145e-05
0.0143125,-1.299435462e-05
0.01433333333,-1.308770788e-05
0.01435416667,-1.3042928e-05
0.014375,-1.286763018e-05
0.01439583333,-1.265516039e-05
0.01441666667,-1.250457535e-05
0.0144375,-1.244418672e-05
0.01445833333,-1.248448552e-05
0.01447916667,-1.250167588e-05
0.0145,-1.241299742e-05
0.01452083333,-1.212360712e-05
0.01454166667,-1.16543124e-05
0.0145625,-1.108735705e-05
0.01458333333,-1.054287077e-05
0.01460416667,-1.009054085e-05
0.014625,-9.748041521e-06
0.01464583333,-9.41896451e-06
0.01466666667,-9.011563634e-06
0.0146875,-8.443063052e-06
0.01470833333,-7.729647223e-06
0.01472916667,-6.963728538e-06
0.01475,-6.261548606e-06
0.01477083333,-5.686659279e-06
0.01479166667,-5.224038887e-06
0.0148125,-4.780026302e-06
0.01483333333,-4.243045623e-06
0.01485416667,-3.529738706e-06
0.014875,-2.664545264e-06
0.01489583333,-1.763022169e-06
0.01491666667,-9.095332985e-07
0.0149375,-1.836179422e-07
0.01495833333,4.163719609e-07
0.01497916667,9.733971638e-07
0.015,1.560992587e-06
0.01502083333,2.269859124e-06
0.01504166667,3.098973821e-06
0.0150625,4.007671123e-06
0.01508333333,4.923871074e-06
0.01510416667,5.771486485e-06
0.015125,6.458661119e-06
0.01514583333,7.005144198e-06
0.01516666667,7.43721148e-06
0.0151875,7.868593457e-06
0.01520833333,8.366951079e-06
0.01522916667,8.974968296e-06
0.01525,9.651754226e-06
0.01527083333,1.032156888e-05
0.01529166667,1.088658337e-05
0.0153125,1.130778492e-05
0.01533333333,1.16353358e-05
0.01535416667,1.197338406e-05
0.015375,1.236671415e-05
0.01539583333,1.289520242e-05
0.01541666667,1.343986514e-05
0.0154375,1.3896788e-05
0.01545833333,1.41544424e-05
0.01547916667,1.419692126e-05
0.0155,1.409243669e-05
0.01552083333,1.395466552e-05
0.01554166667,1.390998295e-05
0.0155625,1.397264077e-05
0.01558333333,1.410217283e-05
0.01560416667,1.419824002e-05
0.015625,1.41612154e-05
0.01564583333,1.400729798e-05
0.01566666667,1.375404372e-05
0.0156875,1.349493232e-05
0.01570833333,1.327428163e-05
0.01572916667,1.31108327e-05
0.01575,1.29010914e-05
0.01577083333,1.259101646e-05
0.01579166667,1.213568703e-05
0.0158125,1.154513666e-05
0.01583333333,1.093687115e-05
0.01585416667,1.036187496e-05
0.015875,9.864986168e-06
0.01589583333,9.402006071e-06
0.01591666667,8.866889402e-06
0.0159375,8.233579138e-06
0.01595833333,7.453021226e-06
0.01597916667,6.649132047e-06
0.016,5.87262457e-06
0.01602083333,5.200529813e-06
0.01604166667,4.581810572e-06
0.0160625,3.972175818e-06
0.01608333333,3.261400479e-06
0.01610416667,2.416374628e-06
0.016125,1.52412656e-06
0.01614583333,6.371440122e-07
0.01616666667,-1.49337481e-07
0.0161875,-8.644926197e-07
0.01620833333,-1.551335004e-06
0.01622916667,-2.270174491e-06
0.01625,-3.105750466e-06
0.01627083333,-4.025764611e-06
0.01629166667,-5.01456816e-06
0.0163125,-5.962478554e-06
0.01633333333,-6.829151062e-06
0.01635416667,-7.563080089e-06
0.016375,-8.177711607e-06
0.01639583333,-8.725087355e-06
0.01641666667,-9.22941399e-06
0.0164375,-9.786428564e-06
0.01645833333,-1.041487303e-05
0.01647916667,-1.114926181e-05
0.0165,-1.186623376e-05
0.01652083333,-1.249293746e-05
0.01654166667,-1.299380801e-05
0.0165625,-1.334811623e-05
0.01658333333,-1.369844085e-05
0.01660416667,-1.405093099e-05
0.016625,-1.456111568e-05
0.01664583333,-1.510909169e-05
0.01666666667,-1.562327452e-05
0.0166875,-1.596534275e-05
0.01670833333,-1.60622476e-05
0.01672916667,-1.599797361e-05
0.01675,-1.584122947e-05
0.01677083333,-1.574944145e-05
0.01679166667,-1.580868047e-05
0.0168125,-1.596513539e-05
0.01683333333,-1.609923675e-05
0.01685416667,-1.609513311e-05
0.016875,-1.587723818e-05
0.01689583333,-1.545568011e-05
0.01691666667,-1.499292466e-05
0.0169375,-1.45815211e-05
0.01695833333,-1.435455397e-05
0.01697916667,-1.424158745e-05
0.017,-1.41546443e-05
0.01702083333,-1.389468434e-05
0.01704166667,-1.337319372e-05
0.0170625,-1.262578644e-05
0.01708333333,-1.172589054e-05
0.01710416667,-1.088703539e-05
0.017125,-1.018069543e-05
0.01714583333,-9.621008758e-06
0.01716666667,-9.107224287e-06
0.0171875,-8.467210137e-06
0.01720833333,-7.675848792e-06
0.01722916667,-6.705256055e-06
0.01725,-5.708646768e-06
0.01727083333,-4.771568911e-06
0.01729166667,-3.990408459e-06
0.0173125,-3.325284752e-06
0.01733333333,-2.701304311e-06
0.01735416667,-2.007412832e-06
0.017375,-1.147027206e-06
0.01739583333,-1.296222081e-07
0.01741666667,1.028522092e-06
0.0174375,2.221267323e-06
0.01745833333,3.317296887e-06
0.01747916667,4.267910754e-06
0.0175,5.048400453e-06
0.01752083333,5.68015048e-06
0.01754166667,6.350792773e-06
0.0175625,7.177368843e-06
0.01758333333,8.164424798e-06
0.01760416667,9.263412721e-06
0.017625,1.034417255e-05
0.01764583333,1.119017634e-05
0.01766666667,1.179023457e-05
0.0176875,1.222042374e-05
0.01770833333,1.265294668e-05
0.01772916667,1.322338449e-05
0.01775,1.398350651e-05
0.01777083333,1.484625409e-05
0.01779166667,1.560056444e-05
0.0178125,1.621752017e-05
0.01783333333,1.658459587e-05
0.01785416667,1.686763062e-05
0.017875,1.711535879e-05
0.01789583333,1.746416274e-05
0.01791666667,1.790210626e-05
0.0179375,1.835244802e-05
0.01795833333,1.876111492e-05
0.01797916667,1.901253381e-05
0.018,1.907927435e-05
0.01802083333,1.897928814e-05
0.01804166667,1.872120629e-05
0.0180625,1.850132867e-05
0.01808333333,1.82564163e-05
0.01810416667,1.812955634e-05
0.018125,1.803502528e-05
0.01814583333,1.797172627e-05
0.01816666667,1.787466681e-05
0.0181875,1.762694774e-05
0.01820833333,1.725242873e-05
0.01822916667,1.675205021e-05
0.01825,1.620459989e-05
0.01827083333,1.560485907e-05
0.01829166667,1.50600863e-05
0.0183125,1.449321462e-05
0.01833333333,1.392546346e-05
0.01835416667,1.334838817e-05
0.018375,1.2571566e-05
0.01839583333,1.171671011e-05
0.01841666667,1.071136921e-05
0.0184375,9.648724699e-06
0.01845833333,8.66308892e-06
0.01847916667,7.806163012e-06
0.0185,7.154616469e-06
0.01852083333,6.50653692e-06
0.01854166667,5.794955996e-06
0.0185625,4.784975317e-06
0.01858333333,3.627284968e-06
0.01860416667,2.363437488e-06
0.018625,1.151632659e-06
0.01864583333,2.182110279e-07
0.01866666667,-5.622999879e-07
0.0186875,-1.254192966e-06
0.01870833333,-2.110654577e-06
0.01872916667,-3.172916195e-06
0.01875,-4.464655831e-06
0.01877083333,-5.780410902e-06
0.01879166667,-6.97725136e-06
0.0188125,-8.013163097e-06
0.01883333333,-8.75673868e-06
0.01885416667,-9.467987184e-06
0.018875,-1.0166018e-05
0.01889583333,-1.095683456e-05
0.01891666667,-1.189566319e-05
0.0189375,-1.282753874e-05
0.01895833333,-1.376273576e-05
0.01897916667,-1.455866732e-05
0.019,-1.521031663e-05
0.01902083333,-1.568555854e-05
0.01904166667,-1.614552821e-05
0.0190625,-1.665256059e-05
0.01908333333,-1.725982474e-05
0.01910416667,-1.800674181e-05
0.019125,-1.876377428e-05
0.01914583333,-1.939643698e-05
0.01916666667,-1.975784107e-05
0.0191875,-1.986765164e-05
0.01920833333,-1.983460425e-05
0.01922916667,-1.973796861e-05
0.01925,-1.988320764e-05
0.01927083333,-2.015917016e-05
0.01929166667,-2.051642878e-05
0.0193125,-2.079097612e-05
0.01933333333,-2.07490757e-05
0.01935416667,-2.039627179e-05
0.019375,-1.982806498e-05
0.01939583333,-1.925087236e-05
0.01941666667,-1.884150333e-05
0.0194375,-1.870962478e-05
0.01945833333,-1.876765054e-05
0.01947916667,-1.879419688e-05
0.0195,-1.859756958e-05
0.01952083333,-1.799081656e-05
0.01954166667,-1.710507422e-05
0.0195625,-1.602267002e-05
0.01958333333,-1.506937133e-05
0.01960416667,-1.434045225e-05
0.019625,-1.386888107e-05
0.01964583333,-1.348166734e-05
0.01966666667,-1.289647116e-05
0.0196875,-1.205301305e-05
0.01970833333,-1.080392758e-05
0.01972916667,-9.40904556e-06
0.01975,-8.143904779e-06
0.01977083333,-7.14477801e-06
0.01979166667,-6.61991271e-06
0.0198125,-6.223993296e-06
0.01983333333,-5.72341105e-06
0.01985416667,-4.836274911e-06
0.019875,-3.43641409e-06
0.01989583333,-1.684995368e-06
0.01991666667,3.335867405e-08
0.0199375,1.413530185e-06
0.01995833333,2.295445029e-06
0.01997916667,2.662041879e-06
0.02,2.561676411e-06
0.02002083333,3.273397397e-06
0.02004166667,4.428509783e-06
0.0200625,5.957806934e-06
0.02008333333,7.601976904e-06
0.02010416667,8.948361028e-06
0.020125,9.803378816e-06
0.02014583333,1.024297671e-05
0.02016666667,1.047549995e-05
0.0201875,1.099345991e-05
0.02020833333,1.197152324e-05
0.02022916667,1.321793479e-05
0.02025,1.456861901e-05
0.02027083333,1.551492824e-05
0.02029166667,1.593573143e-05
0.0203125,1.60025611e-05
0.02033333333,1.599487405e-05
0.02035416667,1.631617306e-05
0.020375,1.706449439e-05
0.02039583333,1.812750088e-05
0.02041666667,1.9069068e-05
0.0204375,1.975630585e-05
0.02045833333,2.001910616e-05
0.02047916667,1.987818541e-05
0.0205,1.966287709e-05
0.02052083333,1.946951852e-05
0.02054166667,1.952741695e-05
0.0205625,1.965939737e-05
0.02058333333,1.986577445e-05
0.02060416667,1.984323535e-05
0.020625,1.970037738e-05
0.02064583333,1.932027044e-05
0.02066666667,1.873369365e-05
0.0206875,1.827910455e-05
0.02070833333,1.782557229e-05
0.02072916667,1.759514271e-05
0.02075,1.742841414e-05
0.02077083333,1.71002539e-05
0.02079166667,1.661444549e-05
0.0208125,1.593003799e-05
0.02083333333,1.520043497e-05
0.02085416667,1.449674892e-05
0.020875,1.398595577e-05
0.02089583333,1.34827078e-05
0.02091666667,1.303929275e-05
0.0209375,1.251762751e-05
0.02095833333,1.186487862e-05
0.02097916667,1.09688126e-05
0.021,9.851057257e-06
0.02102083333,8.615070328e-06
0.02104166667,7.299250228e-06
0.0210625,6.132542694e-06
0.02108333333,4.923263532e-06
0.02110416667,3.803462278e-06
0.021125,2.830739049e-06
0.02114583333,1.717585747e-06
0.02116666667,5.237759524e-07
0.0211875,-1.079870913e-06
0.02120833333,-2.58175578e-06
0.02122916667,-3.982899216e-06
0.02125,-4.97184601e-06
0.02127083333,-5.53434711e-06
0.02129166667,-5.853503808e-06
0.0213125,-6.275243322e-06
0.02133333333,-6.941689662e-06
0.02135416667,-7.806926078e-06
0.021375,-8.804430763e-06
0.02139583333,-9.757352927e-06
0.02141666667,-1.059895476e-05
0.0214375,-1.130061264e-05
0.02145833333,-1.186744885e-05
0.02147916667,-1.26593568e-05
0.0215,-1.340054314e-05
0.02152083333,-1.426001563e-05
0.02154166667,-1.506052649e-05
0.0215625,-1.59272513e-05
0.02158333333,-1.685915777e-05
0.02160416667,-1.783164589e-05
0.021625,-1.861720739e-05
0.02164583333,-1.909193816e-05
0.02166666667,-1.932812847e-05
0.0216875,-1.926057485e-05
0.02170833333,-1.928444544e-05
0.02172916667,-1.946040538e-05
0.02175,-1.976603562e-05
0.02177083333,-1.999935921e-05
0.02179166667,-1.97402569e-05
0.0218125,-1.909528692e-05
0.02183333333,-1.831743975e-05
0.02185416667,-1.758667713e-05
0.021875,-1.730730764e-05
0.02189583333,-1.745884401e-05
0.02191666667,-1.786186112e-05
0.0219375,-1.858865653e-05
0.02195833333,-1.878887451e-05
0.02197916667,-1.875323505e-05
0.022,-1.827987944e-05
0.02202083333,-1.745159898e-05
0.02204166667,-1.644827353e-05
0.0220625,-1.566385436e-05
0.02208333333,-1.503346084e-05
0.02210416667,-1.479292587e-05
0.022125,-1.471867472e-05
0.02214583333,-1.414053895e-05
0.02216666667,-1.338117818e-05
0.0221875,-1.184567373e-05
0.02220833333,-9.748575394e-06
0.02222916667,-7.610396096e-06
0.02225,-5.573404451e-06
0.02227083333,-4.835424079e-06
0.02229166667,-5.116130069e-06
0.0223125,-6.017467967e-06
0.02233333333,-6.379829301e-06
0.02235416667,-5.617616807e-06
0.022375,-3.38273594e-06
0.02239583333,-1.500666258e-07
0.02241666667,2.771066647e-06
0.0224375,4.265016287e-06
0.02245833333,4.16059811e-06
0.02247916667,2.990638677e-06
0.0225,2.27639498e-06
0.02252083333,2.744097856e-06
0.02254166667,4.60668798e-06
0.0225625,7.005806765e-06
0.02258333333,9.377194147e-06
0.02260416667,1.102372971e-05
0.022625,1.196358789e-05
0.02264583333,1.257743952e-05
0.02266666667,1.332279226e-05
0.0226875,1.403069837e-05
0.02270833333,1.469011659e-05
0.02272916667,1.526210508e-05
0.02275,1.622056334e-05
0.02277083333,1.755763151e-05
0.02279166667,1.920432805e-05
0.0228125,2.038615457e-05
0.02283333333,2.113181108e-05
0.02285416667,2.086925997e-05
0.022875,2.015143946e-05
0.02289583333,1.993453952e-05
0.02291666667,2.04144435e-05
0.0229375,2.146338011e-05
0.02295833333,2.268976823e-05
0.02297916667,2.319171836e-05
0.023,2.302818393e-05
0.02302083333,2.238756497e-05
0.02304166667,2.2167309e-05
0.0230625,2.238932575e-05
0.02308333333,2.304379632e-05
0.02310416667,2.309990305e-05
0.023125,2.265858529e-05
0.02314583333,2.160714575e-05
0.02316666667,2.059703547e-05
0.0231875,1.965080628e-05
0.02320833333,2.001880057e-05
0.02322916667,2.042271626e-05
0.02325,2.083041545e-05
0.02327083333,2.054046854e-05
0.02329166667,1.979498848e-05
0.0233125,1.869863627e-05
0.02333333333,1.794979107e-05
0.02335416667,1.789789167e-05
0.023375,1.854520633e-05
0.02339583333,1.930353028e-05
0.02341666667,1.962253737e-05
0.0234375,1.927529956e-05
0.02345833333,1.834841896e-05
0.02347916667,1.663606054e-05
0.0235,1.493163199e-05
0.02352083333,1.265406536e-05
0.02354166667,1.062631418e-05
0.0235625,8.624969269e-06
0.02358333333,7.123632713e-06
0.02360416667,5.797896392e-06
0.023625,5.16552609e-06
0.02364583333,4.392335995e-06
0.02366666667,3.434374776e-06
0.0236875,2.119634473e-06
0.02370833333,-4.836909397e-07
0.02372916667,-3.017005611e-06
0.02375,-4.986176464e-06
0.02377083333,-5.819195394e-06
0.02379166667,-5.802962733e-06
0.0238125,-5.520466402e-06
0.02383333333,-6.60014166e-06
0.02385416667,-8.569590136e-06
0.023875,-1.058985799e-05
0.02389583333,-1.241019254e-05
0.02391666667,-1.250492005e-05
0.0239375,-1.221506227e-05
0.02395833333,-1.182370761e-05
0.02397916667,-1.243144834e-05
0.024,-1.399691155e-05
0.02402083333,-1.587610677e-05
0.02404166667,-1.700518624e-05
0.0240625,-1.747691749e-05
0.02408333333,-1.733763565e-05
0.02410416667,-1.699332461e-05
0.024125,-1.718271778e-05
0.02414583333,-1.784618144e-05
0.02416666667,-1.883214645e-05
0.0241875,-2.029328061e-05
0.02420833333,-2.17786037e-05
0.02422916667,-2.358504935e-05
0.02425,-2.492124622e-05
0.02427083333,-2.570955257e-05
0.02429166667,-2.561835754e-05
0.0243125,-2.549595956e-05
0.02433333333,-2.534669875e-05
0.02435416667,-2.570764264e-05
0.024375,-2.648550435e-05
0.02439583333,-2.714323637e-05
0.02441666667,-2.686791777e-05
0.0244375,-2.635134661e-05
0.02445833333,-2.549423152e-05
0.02447916667,-2.512524952e-05
0.0245,-2.499428956e-05
0.02452083333,-2.488557948e-05
0.02454166667,-2.316422979e-05
0.0245625,-2.138935452e-05
0.02458333333,-1.890020576e-05
0.02460416667,-1.681253343e-05
0.024625,-1.496308687e-05
0.02464583333,-1.411091398e-05
0.02466666667,-1.349658487e-05
0.0246875,-1.351839273e-05
0.02470833333,-1.382176652e-05
0.02472916667,-1.43796351e-05
0.02475,-1.482848529e-05
0.02477083333,-1.459238229e-05
0.02479166667,-1.43347952e-05
0.0248125,-1.437121864e-05
0.02483333333,-1.526337473e-05
0.02485416667,-1.704913848e-05
0.024875,-1.895123751e-05
0.02489583333,-1.958665416e-05
0.02491666667,-1.759004408e-05
0.0249375,-1.42838544e-05
0.02495833333,-9.425824828e-06
0.02497916667,-4.797465408e-06
0.025,-8.503802746e-07
0.02502083333,2.519186182e-06
0.02504166667,5.116991815e-06
0.0250625,6.858858342e-06
0.02508333333,8.539815099e-06
0.02510416667,9.83609425e-06
0.025125,1.136671381e-05
0.02514583333,1.364667332e-05
0.02516666667,1.588734085e-05
0.0251875,1.679673915e-05
0.02520833333,1.690105091e-05
0.02522916667,1.47170158e-05
0.02525,1.347085981e-05
0.02527083333,1.30959279e-05
0.02529166667,1.377618173e-05
0.0253125,1.326368329e-05
0.02533333333,1.193385651e-05
0.02535416667,9.026724001e-06
0.025375,6.601904715e-06
0.02539583333,5.667994174e-06
0.02541666667,8.76989543e-06
0.0254375,1.326318579e-05
0.02545833333,1.947448618e-05
0.02547916667,2.293918988e-05
0.0255,2.451225919e-05
0.02552083333,2.399045115e-05
0.02554166667,2.382565617e-05
0.0255625,2.33171304e-05
0.02558333333,2.348349153e-05
0.02560416667,2.351724834e-05
0.025625,2.265996227e-05
0.02564583333,2.213957123e-05
0.02566666667,2.203168333e-05
0.0256875,2.169454092e-05
0.02570833333,1.992279067e-05
0.02572916667,1.526997221e-05
0.02575,1.024897756e-05
0.02577083333,6.17798878e-06
0.02579166667,5.570140274e-06
0.0258125,9.024077372e-06
0.02583333333,1.46027478e-05
0.02585416667,2.047999442e-05
0.025875,2.498587855e-05
0.02589583333,2.746680002e-05
0.02591666667,2.789807695e-05
0.0259375,2.698590833e-05
0.02595833333,2.692411363e-05
0.02597916667,2.561590372e-05
0.026,2.31758786e-05
0.02602083333,2.088326255e-05
0.02604166667,1.87555579e-05
0.0260625,1.53942492e-05
0.02608333333,1.2143807e-05
0.02610416667,8.165266991e-06
0.026125,5.201712156e-06
0.02614583333,1.860330258e-06
0.02616666667,2.715684104e-07
0.0261875,-1.836507408e-06
0.02620833333,-3.593778274e-06
0.02622916667,-6.3330599e-06
0.02625,-6.401095561e-06
0.02627083333,-5.191641321e-06
0.02629166667,-6.218569979e-07
0.0263125,2.99031035e-06
0.02633333333,5.785903795e-06
0.02635416667,4.915856607e-06
0.026375,3.62044284e-06
0.02639583333,3.000383913e-06
0.02641666667,5.464437891e-06
0.0264375,8.237366274e-06
0.02645833333,1.146848626e-05
0.02647916667,1.006712591e-05
0.0265,7.188050404e-06
0.02652083333,2.292375029e-06
0.02654166667,-1.64706762e-07
0.0265625,-1.601504664e-06
0.02658333333,-2.192336069e-06
0.02660416667,-4.313568752e-06
0.026625,-7.400999948e-06
0.02664583333,-1.013915426e-05
0.02666666667,-9.188262993e-06
0.0266875,-6.346983355e-06
0.02670833333,-2.831870916e-06
0.02672916667,-2.178252544e-06
0.02675,-3.899268449e-06
0.02677083333,-5.756161045e-06
0.02679166667,-2.619830411e-06
0.0268125,4.41906559e-06
0.02683333333,1.340874769e-05
0.02685416667,1.936148328e-05
0.026875,1.936465378e-05
0.02689583333,1.494968092e-05
0.02691666667,9.568495443e-06
0.0269375,6.105868124e-06
0.02695833333,6.031015801e-06
0.02697916667,4.964323125e-06
0.027,2.286241397e-06
0.02702083333,-5.823148967e-07
0.02704166667,1.338135007e-06
0.0270625,5.592381058e-06
0.02708333333,1.465978585e-05
0.02710416667,2.17197412e-05
0.027125,2.574893733e-05
0.02714583333,2.477549242e-05
0.02716666667,2.267360833e-05
0.0271875,2.247512384e-05
0.02720833333,2.477031921e-05
0.02722916667,2.871423567e-05
0.02725,3.381642091e-05
0.02727083333,3.677360655e-05
0.02729166667,3.778388054e-05
0.0273125,3.414277307e-05
0.02733333333,2.787019184e-05
0.02735416667,1.787506153e-05
0.027375,1.052262814e-05
0.02739583333,5.819863873e-06
0.02741666667,8.593499842e-06
0.0274375,1.427455845e-05
0.02745833333,2.330464122e-05
0.02747916667,2.871988545e-05
0.0275,3.395399472e-05
0.02752083333,3.748428935e-05
0.02754166667,4.440343037e-05
0.0275625,5.111144856e-05
0.02758333333,5.664661876e-05
0.02760416667,5.618881551e-05
0.027625,5.354236055e-05
0.02764583333,5.366346886e-05
0.02766666667,5.874282579e-05
0.0276875,6.655520701e-05
0.02770833333,7.262475992e-05
0.02772916667,7.105438999e-05
0.02775,6.355284131e-05
0.02777083333,5.276525917e-05
0.02779166667,4.72563479e-05
0.0278125,4.654761142e-05
0.02783333333,4.995178097e-05
0.02785416667,4.703844752e-05
0.027875,3.61544553e-05
0.02789583333,2.3170036e-05
0.02791666667,1.745533154e-05
0.0279375,2.594029866e-05
0.02795833333,4.522728705e-05
0.02797916667,6.173474685e-05
0.028,6.589935219e-05
0.02802083333,6.018865315e-05
0.02804166667,4.783344775e-05
0.0280625,3.880761142e-05
0.02808333333,3.89126144e-05
0.02810416667,4.246078242e-05
0.028125,4.823798736e-05
0.02814583333,4.991618334e-05
0.02816666667,5.092429274e-05
0.0281875,5.033270281e-05
0.02820833333,4.675544915e-05
0.02822916667,3.525914872e-05
0.02825,1.51179056e-05
0.02827083333,-6.017870874e-06
0.02829166667,-1.818213423e-05
0.0283125,-1.367021014e-05
0.02833333333,5.665575827e-06
0.02835416667,2.887079972e-05
0.028375,4.847393575e-05
0.02839583333,5.284100189e-05
0.02841666667,4.602784611e-05
0.0284375,2.979375859e-05
0.02845833333,1.606095248e-05
0.02847916667,7.715737411e-06
0.0285,6.975995802e-06
0.02852083333,6.799600214e-06
0.02854166667,2.982648994e-06
0.0285625,-5.344254532e-06
0.02858333333,-1.787850124e-05
0.02860416667,-3.354486034e-05
0.028625,-4.263510709e-05
0.02864583333,-4.29060201e-05
0.02866666667,-3.467708666e-05
0.0286875,-2.815488006e-05
0.02870833333,-3.129124889e-05
0.02872916667,-4.940940198e-05
0.02875,-7.635634392e-05
0.02877083333,-9.281429811e-05
0.02879166667,-9.725366544e-05
0.0288125,-8.492850611e-05
0.02883333333,-7.226782327e-05
0.02885416667,-7.016448944e-05
0.028875,-8.218785661e-05
0.02889583333,-0.0001001249402
0.02891666667,-0.0001103328759
0.0289375,-0.0001062331721
0.02895833333,-9.156237502e-05
0.02897916667,-9.141437477e-05
0.029,-0.0001054271124
0.02902083333,-0.0001186006557
0.02904166667,-0.0001221373095
0.0290625,-0.000102504644
0.02908333333,-7.960425864e-05
0.02910416667,-6.72142196e-05
0.029125,-8.872045146e-05
0.02914583333,-0.0001234812953
0.02916666667,-0.0001536519994
0.0291875,-0.0001614150824
0.02920833333,-0.0001457437174
0.02922916667,-0.0001330591331
0.02925,-0.0001396391308
0.02927083333,-0.0001664137963
0.02929166667,-0.0001926227706
0.0293125,-0.0001965203992
0.02933333333,-0.0001757679856
0.02935416667,-0.0001464192756
0.029375,-0.0001433685247
0.02939583333,-0.000159292118
0.02941666667,-0.0001759241277
0.0294375,-0.0001699381392
0.02945833333,-0.000141807046
0.02947916667,-0.0001239454723
0.0295,-0.0001355991699
0.02952083333,-0.000183948694
0.02954166667,-0.0002350291034
0.0295625,-0.0002309406555
0.02958333333,-0.0001390948164
0.02960416667,1.40805605e-06
0.029625,0.0001182819688
0.02964583333,0.0001456011669
0.02966666667,8.053742931e-05
0.0296875,-3.92135662e-05
0.02970833333,-0.0001312765235
0.02972916667,-0.0001690408826
0.02975,-0.0001523499668
0.02977083333,-0.0001339544397
0.02979166667,-0.0001165663489
0.0298125,-9.96189774e-05
0.02983333333,-5.44690738e-05
0.02985416667,-1.801069448e-05
0.029875,-3.776338053e-05
0.02989583333,-0.0001348028891
0.02991666667,-0.0003070516104
0.0299375,-0.0004685983586
0.02995833333,-0.0004671913921
0.02997916667,-0.0003484749177
0.03,0.000370642374
0.03002083333,0.000501369359
0.03004166667,0.0005069253384
0.0300625,0.0003472872777
0.03008333333,0.0001719464635
0.03010416667,6.949374801e-05
0.030125,5.288722241e-05
0.03014583333,8.994626842e-05
0.03016666667,0.0001404007635
0.0301875,0.0001570941386
0.03020833333,0.0001747155911
0.03022916667,0.000191402054
0.03025,0.0002117944678
0.03027083333,0.0001719619031
0.03029166667,7.514529716e-05
0.0303125,-5.693825369e-05
0.03033333333,-0.0001330959058
0.03035416667,-0.000105391955
0.030375,2.157525887e-05
0.03039583333,0.0001863607322
0.03041666667,0.0002925529552
0.0304375,0.000306329719
0.03045833333,0.0002470352338
0.03047916667,0.0001947898854
0.0305,0.0001859792828
0.03052083333,0.000212527535
0.03054166667,0.0002601554734
0.0305625,0.000269289274
0.03058333333,0.0002588277275
0.03060416667,0.000239333458
0.030625,0.0002462791745
0.03064583333,0.0002823398681
0.03066666667,0.0003094611457
0.0306875,0.0003046323836
0.03070833333,0.0002729199477
0.03072916667,0.0002412729955
0.03075,0.0002309157717
0.03077083333,0.0002570105426
0.03079166667,0.0002770764986
0.0308125,0.0002747049439
0.03083333333,0.0002309447591
0.03085416667,0.000186561665
0.030875,0.0001473087759
0.03089583333,0.0001650365593
0.03091666667,0.0002097914403
0.0309375,0.0002403423568
0.03095833333,0.0002516435634
0.03097916667,0.0002336209145
0.031,0.0002190178348
0.03102083333,0.0002160941949
0.03104166667,0.0002399603254
0.0310625,0.0002473170462
0.03108333333,0.0002354226453
0.03110416667,0.0002100385755
0.031125,0.0001892558503
0.03114583333,0.0001990880119
0.03116666667,0.0002138193522
0.0311875,0.0002470580221
0.03120833333,0.0002406680724
0.03122916667,0.0002219457092
0.03125,0.0001767987997
0.03127083333,0.0001473630691
0.03129166667,0.0001442035136
0.0313125,0.0001547668944
0.03133333333,0.0001748600916
0.03135416667,0.0001710965153
0.031375,0.0001637756359
0.03139583333,0.0001277142001
0.03141666667,0.0001160902539
0.0314375,0.0001014922454
0.03145833333,9.663759556e-05
0.03147916667,9.927393694e-05
0.0315,9.547844093e-05
0.03152083333,8.770688146e-05
0.03154166667,5.965198216e-05
0.0315625,4.111747694e-05
0.03158333333,2.446675717e-05
0.03160416667,3.546148582e-05
0.031625,5.950422565e-05
0.03164583333,0.0001031036445
0.03166666667,0.0001382232876
0.0316875,0.0001383500203
0.03170833333,0.000129189677
0.03172916667,9.178795153e-05
0.03175,6.163594662e-05
0.03177083333,3.019024552e-05
0.03179166667,3.011887566e-05
0.0318125,2.19443009e-05
0.03183333333,2.583490459e-05
0.03185416667,2.260150177e-05
0.031875,2.397395838e-05
0.03189583333,3.83582119e-05
0.03191666667,3.187574839e-05
0.0319375,2.893987221e-05
0.03195833333,1.754718255e-06
0.03197916667,-4.314061698e-06
0.032,-5.81045424e-06
0.03202083333,1.876402712e-05
0.03204166667,4.403786079e-05
0.0320625,5.152163794e-05
0.03208333333,3.805168672e-05
0.03210416667,3.328568027e-06
0.032125,-8.279900612e-06
0.03214583333,-1.98709713e-05
0.03216666667,-7.682126579e-07
0.0321875,-8.40654684e-06
0.03220833333,-1.287248051e-05
0.03222916667,-4.511144289e-05
0.03225,-6.637645129e-05
0.03227083333,-7.639492105e-05
0.03229166667,-7.533790631e-05
0.0323125,-5.123767914e-05
0.03233333333,-4.491131767e-05
0.03235416667,-2.794994725e-05
0.032375,-3.802013453e-05
0.03239583333,-3.288550579e-05
0.03241666667,-2.998000127e-05
0.0324375,-1.858444557e-05
0.03245833333,-1.280583365e-05
0.03247916667,-8.309572877e-06
0.0325,1.460753651e-06
0.03252083333,9.372573913e-06
0.03254166667,3.743339403e-05
0.0325625,4.20009128e-05
0.03258333333,5.878543379e-05
0.03260416667,4.230821287e-05
0.032625,2.617190694e-05
0.03264583333,-3.216807272e-06
0.03266666667,-3.145903247e-05
0.0326875,-4.431873458e-05
0.03270833333,-4.803970296e-05
0.03272916667,-3.60157901e-05
0.03275,-3.505899804e-05
0.03277083333,-2.566487274e-05
0.03279166667,-3.57724748e-05
0.0328125,-3.446001574e-05
0.03283333333,-5.185720875e-05
0.03285416667,-5.075400259e-05
0.032875,-4.179842654e-05
0.03289583333,-2.326834874e-05
0.03291666667,6.30639488e-06
0.0329375,1.334776152e-05
0.03295833333,2.634717202e-05
0.03297916667,1.260824047e-05
0.033,1.51975637e-05
0.03302083333,5.321378467e-06
0.03304166667,1.770227027e-05
0.0330625,3.473623565e-06
0.03308333333,-7.322236343e-06
0.03310416667,-2.360339022e-05
0.033125,-2.635139936e-05
0.03314583333,-2.038268394e-05
0.03316666667,-9.123079508e-06
0.0331875,6.276778549e-06
0.03320833333,4.553523013e-06
0.03322916667,1.823310186e-06
0.03325,-1.34918555e-05
0.03327083333,-6.402040071e-06
0.03329166667,2.745833626e-06
0.0333125,6.49337062e-06
0.03333333333,6.468156243e-06
0.03335416667,-6.684875189e-06
0.033375,-1.812725532e-05
0.03339583333,-2.126773506e-05
0.03341666667,-7.794267731e-06
0.0334375,-1.038569462e-05
0.03345833333,-8.201172022e-06
0.03347916667,-1.539298319e-05
0.0335,-2.846393909e-05
0.03352083333,-4.398795136e-05
0.03354166667,-5.058868192e-05
0.0335625,-5.21781476e-05
0.03358333333,-5.033429261e-05
0.03360416667,-5.300760313e-05
0.033625,-6.445249164e-05
0.03364583333,-5.851711467e-05
0.03366666667,-5.257806333e-05
0.0336875,-4.021537461e-05
0.03370833333,-2.944659718e-05
0.03372916667,-3.411864964e-05
0.03375,-3.890230801e-05
0.03377083333,-5.185540795e-05
0.03379166667,-5.477236846e-05
0.0338125,-5.918719762e-05
0.03383333333,-4.501924923e-05
0.03385416667,-4.718943092e-05
0.033875,-4.696984979e-05
0.03389583333,-6.553660933e-05
0.03391666667,-9.323751146e-05
0.0339375,-0.0001232681971
0.03395833333,-0.000150020438
0.03397916667,-0.0001576472569
0.034,-0.0001702229056
0.03402083333,-0.0001599183015
0.03404166667,-0.0001556821371
0.0340625,-0.0001479710336
0.03408333333,-0.0001543012186
0.03410416667,-0.0001424583315
0.034125,-0.0001244355954
0.03414583333,-0.0001090532242
0.03416666667,-8.791349683e-05
0.0341875,-7.382230979e-05
0.03420833333,-6.422984734e-05
0.03422916667,-6.975155702e-05
0.03425,-6.705835403e-05
0.03427083333,-8.019017696e-05
0.03429166667,-9.383609722e-05
0.0343125,-0.0001134852864
0.03433333333,-0.0001374436106
0.03435416667,-0.0001566237333
0.034375,-0.000168746541
0.03439583333,-0.0001553397597
0.03441666667,-0.0001407739619
0.0344375,-0.0001255802781
0.03445833333,-0.0001240663842
0.03447916667,-0.0001268820342
0.0345,-0.0001297189301
0.03452083333,-0.0001186036534
0.03454166667,-9.479515575e-05
0.0345625,-8.342885121e-05
0.03458333333,-6.879374268e-05
0.03460416667,-6.636945182e-05
0.034625,-6.24115346e-05
0.03464583333,-6.791541819e-05
0.03466666667,-7.286985056e-05
0.0346875,-9.140783368e-05
0.03470833333,-0.0001021067292
0.03472916667,-0.0001201659034
0.03475,-0.0001344235206
0.03477083333,-0.000133019872
0.03479166667,-0.0001265742176
0.0348125,-0.0001127375363
0.03483333333,-0.0001097771528
0.03485416667,-9.708737343e-05
0.034875,-9.743481496e-05
0.03489583333,-8.477867959e-05
0.03491666667,-7.022017235e-05
0.0349375,-4.933121454e-05
0.03495833333,-2.500537994e-05
0.03497916667,-9.292135474e-06
0.035,1.380426693e-05
0.03502083333,3.036925773e-05
0.03504166667,5.560776481e-05
0.0350625,6.187388499e-05
0.03508333333,6.764491991e-05
0.03510416667,4.832506966e-05
0.035125,3.848656706e-05
0.03514583333,2.675573705e-05
0.03516666667,1.678404624e-05
0.0351875,2.511901585e-05
0.03520833333,6.307041076e-06
0.03522916667,9.777730156e-06
0.03525,-1.010012511e-05
0.03527083333,-1.314277415e-05
0.03529166667,-2.802041126e-05
0.0353125,-3.635064058e-05
0.03533333333,-4.203063509e-05
0.03535416667,-3.813472722e-05
0.035375,-2.04048556e-05
0.03539583333,2.553618287e-06
0.03541666667,3.946313518e-05
0.0354375,5.279427205e-05
0.03545833333,7.524895045e-05
0.03547916667,6.779975229e-05
0.0355,7.848803943e-05
0.03552083333,8.553788939e-05
0.03554166667,9.605255036e-05
0.0355625,0.0001097518834
0.03558333333,0.0001057252084
0.03560416667,0.0001047826081
0.035625,9.167267126e-05
0.03564583333,9.305590356e-05
0.03566666667,8.581126895e-05
0.0356875,8.578564302e-05
0.03570833333,7.054479647e-05
0.03572916667,5.4393764e-05
0.03575,4.32959605e-05
0.03577083333,3.983001079e-05
0.03579166667,3.868703789e-05
0.0358125,3.622374788e-05
0.03583333333,2.797487468e-05
0.03585416667,2.597389175e-05
0.035875,3.71521819e-05
0.03589583333,4.359661398e-05
0.03591666667,7.189618918e-05
0.0359375,7.489761629e-05
0.03595833333,7.55029032e-05
0.03597916667,6.933351688e-05
0.036,5.020256503e-05
0.03602083333,5.348308332e-05
0.03604166667,4.963722313e-05
0.0360625,6.517442671e-05
0.03608333333,7.92596984e-05
0.03610416667,8.911702753e-05
0.036125,8.775883907e-05
0.03614583333,8.430811431e-05
0.03616666667,6.872057565e-05
0.0361875,6.320561079e-05
0.03620833333,5.460407556e-05
0.03622916667,4.286382682e-05
0.03625,2.73867081e-05
0.03627083333,8.749631888e-06
0.03629166667,6.716652933e-06
0.0363125,-2.641027095e-07
0.03633333333,3.171018761e-06
0.03635416667,-9.053468602e-06
0.036375,-2.836147542e-05
0.03639583333,-3.446005576e-05
0.03641666667,-5.51166886e-05
0.0364375,-4.729999273e-05
0.03645833333,-5.408916331e-05
0.03647916667,-3.427157571e-05
0.0365,-3.936361099e-05
0.03652083333,-4.222684947e-05
0.03654166667,-5.595521361e-05
0.0365625,-7.109766011e-05
0.03658333333,-5.498263636e-05
0.03660416667,-4.068105045e-05
0.036625,-1.986581265e-05
0.03664583333,-1.810451613e-05
0.03666666667,-1.756885831e-05
0.0366875,-3.978759196e-05
0.03670833333,-5.227099246e-05
0.03672916667,-7.353295223e-05
0.03675,-8.266112127e-05
0.03677083333,-7.862407074e-05
0.03679166667,-7.876248856e-05
0.0368125,-6.2867206e-05
0.03683333333,-6.612001744e-05
0.03685416667,-7.013719733e-05
0.036875,-8.548883488e-05
0.03689583333,-9.27042347e-05
0.03691666667,-9.809651237e-05
0.0369375,-0.0001053361339
0.03695833333,-0.0001124818591
0.03697916667,-0.0001285841572
0.037,-0.0001139207161
0.03702083333,-0.000112927155
0.03704166667,-0.0001032808796
0.0370625,-0.0001155224527
0.03708333333,-0.0001205558365
0.03710416667,-0.0001444366062
0.037125,-0.0001650313934
0.03714583333,-0.0001672154031
0.03716666667,-0.0001490682189
0.0371875,-0.0001181291082
0.03720833333,-0.0001249892666
0.03722916667,-0.0001186057634
0.03725,-0.0001422598143
0.03727083333,-0.0001470666903
0.03729166667,-0.0001525997359
0.0373125,-0.00013983791
0.03733333333,-0.0001171347103
0.03735416667,-0.0001284157188
0.037375,-0.0001150800381
0.03739583333,-0.000130189379
0.03741666667,-0.0001068316778
0.0374375,-0.0001065559918
0.03745833333,-9.137832967e-05
0.03747916667,-0.0001010480191
0.0375,-0.0001232940413
0.03752083333,-0.0001273451926
0.03754166667,-0.0001378379384
0.0375625,-9.903093451e-05
0.03758333333,-8.571444778e-05
0.03760416667,-6.616939208e-05
0.037625,-8.037732914e-05
0.03764583333,-0.0001143156478
0.03766666667,-0.0001406345691
0.0376875,-0.0001678940898
0.03770833333,-0.0001652464271
0.03772916667,-0.0001626212033
0.03775,-0.0001302938617
0.03777083333,-0.0001225789601
0.03779166667,-8.773724403e-05
0.0378125,-9.56083968e-05
0.03783333333,-8.836195047e-05
0.03785416667,-8.512425848e-05
0.037875,-9.767208394e-05
0.03789583333,-9.412259533e-05
0.03791666667,-9.615996532e-05
0.0379375,-8.053454076e-05
0.03795833333,-8.93578981e-05
0.03797916667,-8.38828928e-05
0.038,-9.626187239e-05
0.03802083333,-9.627341205e-05
0.03804166667,-0.0001018586481
0.0380625,-0.0001141574176
0.03808333333,-0.0001255214302
0.03810416667,-0.0001383188646
0.038125,-0.0001312681998
0.03814583333,-0.000134445203
0.03816666667,-0.0001128467266
0.0381875,-0.0001184653738
0.03820833333,-0.0001127394207
0.03822916667,-0.0001310980733
0.03825,-0.0001281757141
0.03827083333,-0.0001304082543
0.03829166667,-0.0001187045709
0.0383125,-9.945964848e-05
0.03833333333,-0.0001141568064
0.03835416667,-0.0001200191618
0.038375,-0.0001658549299
0.03839583333,-0.0001730347867
0.03841666667,-0.0001987069845
0.0384375,-0.0001880651689
0.03845833333,-0.0001954888576
0.03847916667,-0.0001962738461
0.0385,-0.0001817204757
0.03852083333,-0.0001925199613
0.03854166667,-0.0001793513802
0.0385625,-0.0002022684348
0.03858333333,-0.0001902626536
0.03860416667,-0.0002114064846
0.038625,-0.0002094057854
0.03864583333,-0.0002145880571
0.03866666667,-0.0002046557784
0.0386875,-0.0001712151279
0.03870833333,-0.0001691566431
0.03872916667,-0.0001496822224
0.03875,-0.0001854378788
0.03877083333,-0.0002037052473
0.03879166667,-0.0002350514987
0.0388125,-0.0002385005646
0.03883333333,-0.0002537411638
0.03885416667,-0.0002766141843
0.038875,-0.0002894074423
0.03889583333,-0.000325820758
0.03891666667,-0.0003320417018
0.0389375,-0.0003475583217
0.03895833333,-0.0003349217586
0.03897916667,-0.0003465134942
0.039,-0.0003436181869
0.03902083333,-0.0003583017096
0.03904166667,-0.0003502077598
0.0390625,-0.0003392188519
0.03908333333,-0.0003197954211
0.03910416667,-0.000282939116
0.039125,-0.0002848406439
0.03914583333,-0.0002585816255
0.03916666667,-0.0002638885635
0.0391875,-0.0002315469901
0.03920833333,-0.0002234619751
0.03922916667,-0.0002149193315
0.03925,-0.0002381062659
0.03927083333,-0.0002697926539
0.03929166667,-0.0002816903871
0.0393125,-0.0003135129518
0.03933333333,-0.0003103646741
0.03935416667,-0.0003216936893
0.039375,-0.0003200757201
0.03939583333,-0.0003337436647
0.03941666667,-0.0003403739538
0.0394375,-0.0003295610077
0.03945833333,-0.0003399633279
0.03947916667,-0.0003168119292
0.0395,-0.0003274147748
0.03952083333,-0.0003134791914
0.03954166667,-0.0003162964713
0.0395625,-0.0003026729973
0.03958333333,-0.0002928335452
0.03960416667,-0.0002696763841
0.039625,-0.0002559349232
0.03964583333,-0.0002521293936
0.03966666667,-0.000230138452
0.0396875,-0.0002335812896
0.03970833333,-0.0002135052782
0.03972916667,-0.0002238806337
0.03975,-0.0002194094413
0.03977083333,-0.0002426997671
0.03979166667,-0.0002446839644
0.0398125,-0.0002489741892
0.03983333333,-0.0002443495905
0.03985416667,-0.0002265343501
0.039875,-0.0002519267437
0.03989583333,-0.0002373065217
0.03991666667,-0.0002574469545
0.0399375,-0.0002491678461
0.03995833333,-0.0002598592837
0.03997916667,-0.0002576726256
0.04,-0.0002534230589
0.04002083333,-0.0002421200043
0.04004166667,-0.0001922911761
0.0400625,-0.0001837990567
0.04008333333,-0.0001598803501
0.04010416667,-0.0001902722142
0.040125,-0.0001936660265
0.04014583333,-0.0002099611156
0.04016666667,-0.0002039653482
0.0401875,-0.0001907353726
0.04020833333,-0.0001937488851
0.04022916667,-0.0001764473709
0.04025,-0.0001899528579
0.04027083333,-0.0001836256852
0.04029166667,-0.0002008108131
0.0403125,-0.0001866592211
0.04033333333,-0.0001773072872
0.04035416667,-0.0001539657533
0.040375,-0.000141681594
0.04039583333,-0.0001307733182
0.04041666667,-0.0001257821859
0.0404375,-0.0001274269162
0.04045833333,-0.0001006963867
0.04047916667,-8.975573292e-05
0.0405,-6.757478695e-05
0.04052083333,-7.876886957e-05
0.04054166667,-8.466362488e-05
0.0405625,-9.842019062e-05
0.04058333333,-9.049489745e-05
0.04060416667,-6.918063445e-05
0.040625,-4.677085235e-05
0.04064583333,-8.918977983e-06
0.04066666667,-1.016573151e-05
0.0406875,-6.456707524e-07
0.04070833333,-2.327867696e-05
0.04072916667,-1.366130164e-05
0.04075,-3.250737791e-05
0.04077083333,-2.428752123e-05
0.04079166667,-1.801053077e-05
0.0408125,-1.896524554e-05
0.04083333333,8.469430213e-06
0.04085416667,-1.524247637e-06
0.040875,3.344230936e-05
0.04089583333,2.190435953e-05
0.04091666667,3.567894964e-05
0.0409375,1.656611857e-05
0.04095833333,4.920329957e-06
0.04097916667,2.547904296e-05
0.041,2.641076935e-05
0.04102083333,9.80951736e-05
0.04104166667,0.0001034163652
0.0410625,0.0001634648361
0.04108333333,0.0001528309367
0.04110416667,0.0001600310352
0.041125,0.0001291761437
0.04114583333,0.0001250088389
0.04116666667,0.0001261705911
0.0411875,0.0001178237289
0.04120833333,0.0001441080531
0.04122916667,0.000130915505
0.04125,0.0001426073286
0.04127083333,0.0001026777027
0.04129166667,9.385096928e-05
0.0413125,7.061429642e-05
0.04133333333,5.715042789e-05
0.04135416667,5.70717275e-05
0.041375,1.423847425e-05
0.04139583333,3.773727803e-05
0.04141666667,6.103614851e-06
0.0414375,3.571353955e-05
0.04145833333,2.408882574e-05
0.04147916667,4.766550774e-05
0.0415,4.430337867e-05
0.04152083333,2.95781756e-05
0.04154166667,3.474576806e-05
0.0415625,2.368920286e-05
0.04158333333,5.748396507e-05
0.04160416667,4.853171777e-05
0.041625,7.056368486e-05
0.04164583333,5.588177009e-05
0.04166666667,7.003312203e-05
0.0416875,6.300631503e-05
0.04170833333,4.909908239e-05
0.04172916667,4.624171925e-05
0.04175,3.285636467e-06
0.04177083333,-1.484185577e-05
0.04179166667,-7.702538278e-05
0.0418125,-6.169655535e-05
0.04183333333,-7.729671779e-05
0.04185416667,-6.041484812e-05
0.041875,-8.736933523e-05
0.04189583333,-0.0001212658899
0.04191666667,-0.0001309183135
0.0419375,-0.0001589663734
0.04195833333,-0.0001324426848
0.04197916667,-0.0001391616679
0.042,-0.0001133028854
0.04202083333,-0.0001196989833
0.04204166667,-9.759474779e-05
0.0420625,-0.0001129259545
0.04208333333,-0.0001233590883
0.04210416667,-0.0001162799017
0.042125,-0.0001531994203
0.04214583333,-0.0001399579487
0.04216666667,-0.0001693201921
0.0421875,-0.0001180274194
0.04220833333,-0.0001235802774
0.04222916667,-0.0001007868996
0.04225,-0.0001034645102
0.04227083333,-0.0001271257788
0.04229166667,-0.0001405239746
0.0423125,-0.0001817611919
0.04233333333,-0.000182397649
0.04235416667,-0.0002264175419
0.042375,-0.0002072061179
0.04239583333,-0.0002198268194
0.04241666667,-0.0002067059104
0.0424375,-0.0002222209441
0.04245833333,-0.0002533822844
0.04247916667,-0.0002663628547
0.0425,-0.0002997586562
0.04252083333,-0.000303673296
0.04254166667,-0.0003310935863
0.0425625,-0.0003022042802
0.04258333333,-0.0003065885103
0.04260416667,-0.0002792462183
0.042625,-0.0002838191867
0.04264583333,-0.000273306825
0.04266666667,-0.0002532616782
0.0426875,-0.000264729897
0.04270833333,-0.0002552471415
0.04272916667,-0.0002779252536
0.04275,-0.00025589508
0.04277083333,-0.0002779416973
0.04279166667,-0.0002452257031
0.0428125,-0.0002510641061
0.04283333333,-0.0002313966979
0.04285416667,-0.0002281752677
0.042875,-0.0002331937721
0.04289583333,-0.0002108326007
0.04291666667,-0.000241088972
0.0429375,-0.0002179910662
0.04295833333,-0.0002758803312
0.04297916667,-0.0002611178497
0.043,-0.0002929420152
0.04302083333,-0.0002885820577
0.04304166667,-0.0002681266633
0.0430625,-0.0002477094531
0.04308333333,-0.0002100744459
0.04310416667,-0.0001872402499
0.043125,-0.000157341914
0.04314583333,-0.0001538127981
0.04316666667,-0.0001276167459
0.0431875,-0.0001245824096
0.04320833333,-9.700021474e-05
0.04322916667,-7.350076339e-05
0.04325,-4.457289469e-05
0.04327083333,8.972805517e-06
0.04329166667,4.524982069e-05
0.0433125,8.945574518e-05
0.04333333333,9.801057604e-05
0.04335416667,0.0001035180685
0.043375,8.453286137e-05
0.04339583333,8.286543016e-05
0.04341666667,8.256321598e-05
0.0434375,0.0001121915702
0.04345833333,0.0001390683756
0.04347916667,0.0001751539821
0.0435,0.0002033973724
0.04352083333,0.000216415021
0.04354166667,0.0002484364668
0.0435625,0.0002610546653
0.04358333333,0.0002823523828
0.04360416667,0.0002958026598
0.043625,0.0003155372688
0.04364583333,0.0003377407556
0.04366666667,0.000373065006
0.0436875,0.0004126561689
0.04370833333,0.0004303700407
0.04372916667,0.0004590620229
0.04375,0.0004522430245
0.04377083333,0.0004609865719
0.04379166667,0.0004558544024
0.0438125,0.0004694515956
0.04383333333,0.0004834170395
0.04385416667,0.0004976560595
0.043875,0.0005061159027
0.04389583333,0.0004988992005
0.04391666667,0.0004896350438
0.0439375,0.0004805931239
0.04395833333,0.0004759987933
0.04397916667,0.0004617138184
0.044,0.0004581042158
0.04402083333,0.0004602254485
0.04404166667,0.0004563498078
0.0440625,0.0004719184071
0.04408333333,0.0004736520641
0.04410416667,0.0004840189358
0.044125,0.0004642636923
0.04414583333,0.0004550955782
0.04416666667,0.0004391535767
0.0441875,0.0004424729268
0.04420833333,0.0004374910495
0.04422916667,0.0004377895384
0.04425,0.0004315612605
0.04427083333,0.0004134777118
0.04429166667,0.0004000664048
0.0443125,0.0003668149875
0.04433333333,0.0003486856585
0.04435416667,0.0003286740684
0.044375,0.000303114386
0.04439583333,0.0002749139967
0.04441666667,0.0002461438417
0.0444375,0.0002426102728
0.04445833333,0.0002532306535
0.04447916667,0.0002870371973
0.0445,0.0002894343634
0.04452083333,0.0002965731546
0.04454166667,0.0002705774095
0.0445625,0.0002544833696
0.04458333333,0.0002390287409
0.04460416667,0.0002322952496
0.044625,0.0002279574255
0.04464583333,0.0002134658571
0.04466666667,0.0002066998277
0.0446875,0.0002056312514
0.04470833333,0.0002285660885
0.04472916667,0.0002549991477
0.04475,0.0002726894745
0.04477083333,0.0002784916142
0.04479166667,0.0002619478619
0.0448125,0.0002381869417
0.04483333333,0.0002122357837
0.04485416667,0.0002272947459
0.044875,0.0002356996702
0.04489583333,0.0002612871467
0.04491666667,0.0002767240221
0.0449375,0.0002866373979
0.04495833333,0.0002703970531
0.04497916667,0.0002509737387
0.045,0.0002218015725
0.04502083333,0.0001928490819
0.04504166667,0.0001841862831
0.0450625,0.0001761261956
0.04508333333,0.0001910811261
0.04510416667,0.0002074374788
0.045125,0.0002436389768
0.04514583333,0.0002692896815
0.04516666667,0.0002706415835
0.0451875,0.0002780620125
0.04520833333,0.0002752029977
0.04522916667,0.0002909367613
0.04525,0.0002976879769
0.04527083333,0.0003118537134
0.04529166667,0.000303079898
0.0453125,0.0003052160027
0.04533333333,0.0003051687381
0.04535416667,0.0003209064016
0.045375,0.0003424177703
0.04539583333,0.0003612333094
0.04541666667,0.0003820018901
0.0454375,0.0003762664273
0.04545833333,0.0003790403425
0.04547916667,0.0003763326677
0.0455,0.0003865370527
0.04552083333,0.0004069421266
0.04554166667,0.0004153729533
0.0455625,0.0004203813151
0.04558333333,0.0004035317979
0.04560416667,0.000417196803
0.045625,0.0004214743094
0.04564583333,0.000441228447
0.04566666667,0.0004396411823
0.0456875,0.0004199846589
0.04570833333,0.000389844412
0.04572916667,0.0003607081599
0.04575,0.0003389779886
0.04577083333,0.0003391273785
0.04579166667,0.0003552612616
0.0458125,0.0003689690493
0.04583333333,0.0003811992065
0.04585416667,0.000397471711
0.045875,0.0004215074587
0.04589583333,0.0004475953756
0.04591666667,0.0004569721641
0.0459375,0.0004607024021
0.04595833333,0.0004490815918
0.04597916667,0.0004439512268
0.046,0.0004345005145
0.04602083333,0.0004382164043
0.04604166667,0.0004372803087
0.0460625,0.0004556197673
0.04608333333,0.0004636152298
0.04610416667,0.0004742784076
0.046125,0.0004790283274
0.04614583333,0.0004819051537
0.04616666667,0.0004874092119
0.0461875,0.0004846255179
0.04620833333,0.0004926400143
0.04622916667,0.0004867620301
0.04625,0.0004996292992
0.04627083333,0.0005218669539
0.04629166667,0.0005383010721
0.0463125,0.0005661568139
0.04633333333,0.000577599043
0.04635416667,0.0006047755014
0.046375,0.000615959987
0.04639583333,0.0006305929273
0.04641666667,0.0006234181928
0.0464375,0.0006271019229
0.04645833333,0.0006288678851
0.04647916667,0.0006275731139
0.0465,0.0006318339147
0.04652083333,0.0006441489095
0.04654166667,0.0006598887267
0.0465625,0.0006651227595
0.04658333333,0.0006742387777
0.04660416667,0.0006657080958
0.046625,0.0006579329493
0.04664583333,0.0006348169409
0.04666666667,0.0006078244769
0.0466875,0.0005936737289
0.04670833333,0.0005639699521
0.04672916667,0.0005573870149
0.04675,0.0005452315672
0.04677083333,0.000550755125
0.04679166667,0.0005450661993
0.0468125,0.0005479219835
0.04683333333,0.0005433099577
0.04685416667,0.0005378403002
0.046875,0.0005294353468
0.04689583333,0.0005181575543
0.04691666667,0.0005112222279
0.0469375,0.0005111500504
0.04695833333,0.0005189488875
0.04697916667,0.0005221314495
0.047,0.0005354234017
0.04702083333,0.0005366526893
0.04704166667,0.0005322491052
0.0470625,0.0005283569335
0.04708333333,0.000507925055
0.04710416667,0.0005042843404
0.047125,0.0004679110716
0.04714583333,0.0004506117257
0.04716666667,0.0004285930772
0.0471875,0.0004254365922
0.04720833333,0.000427818246
0.04722916667,0.0004504735407
0.04725,0.0004745358019
0.04727083333,0.0004879964981
0.04729166667,0.0004950212315
0.0473125,0.0004838381719
0.04733333333,0.0004756423878
0.04735416667,0.0004521365045
0.047375,0.0004386451328
0.04739583333,0.0004263630544
0.04741666667,0.0004198547394
0.0474375,0.0004147847358
0.04745833333,0.0004068913986
0.04747916667,0.0004124123079
0.0475,0.000401732832
0.04752083333,0.000405964267
0.04754166667,0.0003940199676
0.0475625,0.0003916490823
0.04758333333,0.0003674688633
0.04760416667,0.0003607007675
0.047625,0.0003487000358
0.04764583333,0.0003552780545
0.04766666667,0.0003622600343
0.0476875,0.0003666717384
0.04770833333,0.000391485868
0.04772916667,0.000388353772
0.04775,0.0004056257603
0.04777083333,0.0004024067021
0.04779166667,0.0004009928671
0.0478125,0.0004077905032
0.04783333333,0.0004044096277
0.04785416667,0.0004192381166
0.047875,0.0004258419794
0.04789583333,0.0004518337082
0.04791666667,0.0004614975187
0.0479375,0.0004940491635
0.04795833333,0.0005098398542
0.04797916667,0.0005443886039
0.048,0.0005588806234
0.04802083333,0.0005691837869
0.04804166667,0.000579415937
0.0480625,0.0005860343808
0.04808333333,0.0006182431825
0.04810416667,0.000641323335
0.048125,0.0006877942942
0.04814583333,0.0007129203877
0.04816666667,0.0007315060357
0.0481875,0.0007422897615
0.04820833333,0.0007370839012
0.04822916667,0.0007507447153
0.04825,0.000748749706
0.04827083333,0.0007599848323
0.04829166667,0.0007638781099
0.0483125,0.0007707083132
0.04833333333,0.0007606989238
0.04835416667,0.0007697831024
0.048375,0.0007831742987
0.04839583333,0.0007874795701
0.04841666667,0.0007863100618
0.0484375,0.0007545526605
0.04845833333,0.0007223338471
0.04847916667,0.000689646462
0.0485,0.0006834015949
0.04852083333,0.0006867883494
0.04854166667,0.000694304239
0.0485625,0.0007027353859
0.04858333333,0.0007021871279
0.04860416667,0.0007041143253
0.048625,0.0006969293463
0.04864583333,0.0007195778308
0.04866666667,0.0007398965536
0.0486875,0.0007718744455
0.04870833333,0.0007785706548
0.04872916667,0.0007938580238
0.04875,0.0007959812065
0.04877083333,0.0008092930657
0.04879166667,0.0008292912971
0.0488125,0.000836861087
0.04883333333,0.0008548162878
0.04885416667,0.0008505357546
0.048875,0.0008532700012
0.04889583333,0.000858073472
0.04891666667,0.0008785569808
0.0489375,0.0009012022056
0.04895833333,0.0009084962076
0.04897916667,0.0009060898446
0.049,0.0008760783821
0.04902083333,0.00085846812
0.04904166667,0.0008376623737
0.0490625,0.0008470072644
0.04908333333,0.0008491569315
0.04910416667,0.0008733562427
0.049125,0.0008767442778
0.04914583333,0.0008760816418
0.04916666667,0.0008730989648
0.0491875,0.0008625431219
0.04920833333,0.0008500544354
0.04922916667,0.0008303958457
0.04925,0.0008206142229
0.04927083333,0.0008024367271
0.04929166667,0.000805789954
0.0493125,0.0008190398803
0.04933333333,0.0008503984427
0.04935416667,0.0008778256015
0.049375,0.0008755128365
0.04939583333,0.0008768431144
0.04941666667,0.0008613580721
0.0494375,0.0008665806963
0.04945833333,0.0008695113938
0.04947916667,0.0008896612562
0.0495,0.0009094146662
0.04952083333,0.0009397765389
0.04954166667,0.0009629023843
0.0495625,0.000978907221
0.04958333333,0.0009806610178
0.04960416667,0.0009700511582
0.049625,0.0009569720132
0.04964583333,0.0009320302634
0.04966666667,0.0009222085937
0.0496875,0.0009211132419
0.04970833333,0.0009329675231
0.04972916667,0.0009451606311
0.04975,0.0009652777808
0.04977083333,0.00099082815
0.04979166667,0.000985558494
0.0498125,0.0009872810915
0.04983333333,0.0009684467223
0.04985416667,0.0009643895901
0.049875,0.0009642814985
0.04989583333,0.0009890884394
0.04991666667,0.001002543606
0.0499375,0.001015292015
0.04995833333,0.00100542733
0.04997916667,0.0009760253597
0.05,0.0009698973154
0.05002083333,0.0009428552585
0.05004166667,0.0009431552025
0.0500625,0.0009387595346
0.05008333333,0.0009377487004
0.05010416667,0.0009323183913
0.050125,0.0009141810588
0.05014583333,0.0009021541919
0.05016666667,0.0008898813394
0.0501875,0.0008874813211
0.05020833333,0.0008733183495
0.05022916667,0.0008749653352
0.05025,0.0008596946718
0.05027083333,0.0008632104145
0.05029166667,0.0008556772955
0.0503125,0.0008592748782
0.05033333333,0.0008608243079
0.05035416667,0.0008492313791
0.050375,0.0008267319063
0.05039583333,0.0007818520535
0.05041666667,0.0007572970935
0.0504375,0.0007484434755
0.05045833333,0.0007632509223
0.05047916667,0.000791935483
0.0505,0.000808344048
0.05052083333,0.0008021395188
0.05054166667,0.0007759697619
0.0505625,0.0007655081572
0.05058333333,0.000763839751
0.05060416667,0.0007867300883
0.050625,0.000794555177
0.05064583333,0.0008073073695
0.05066666667,0.0007907066611
0.0506875,0.0007773852558
0.05070833333,0.0007727987831
0.05072916667,0.0007788390503
0.05075,0.0007877376047
0.05077083333,0.0007813538541
0.05079166667,0.0007712455699
0.0508125,0.0007573815528
0.05083333333,0.0007714961539
0.05085416667,0.0007928467821
0.050875,0.0008212698158
0.05089583333,0.0008292056154
0.05091666667,0.0008201845922
0.0509375,0.0008011933533
0.05095833333,0.0007788746152
0.05097916667,0.0007772024255
0.051,0.0007792534307
0.05102083333,0.0008030525059
0.05104166667,0.0007998177898
0.0510625,0.0008106730529
0.05108333333,0.0007996162749
0.05110416667,0.00080740056
0.051125,0.0007953497116
0.05114583333,0.0007802328328
0.05116666667,0.0007653039065
0.0511875,0.0007420163602
0.05120833333,0.0007617597585
0.05122916667,0.0007733469247
0.05125,0.0008140435675
0.05127083333,0.0008247671067
0.05129166667,0.0008262244519
0.0513125,0.000824252551
0.05133333333,0.0008080586558
0.05135416667,0.0008237364236
0.051375,0.0008296846063
0.05139583333,0.0008671099786
0.05141666667,0.0008655138081
0.0514375,0.0008717403398
0.05145833333,0.0008558818372
0.05147916667,0.0008490687469
0.0515,0.0008408111753
0.05152083333,0.0008194874972
0.05154166667,0.000798181456
0.0515625,0.0007465946837
0.05158333333,0.0006975528668
0.05160416667,0.0006509509403
0.051625,0.0006381982239
0.05164583333,0.0006229707506
0.05166666667,0.0006149847759
0.0516875,0.0005852657487
0.05170833333,0.0005500084953
0.05172916667,0.0005132943625
0.05175,0.0004690612259
0.05177083333,0.0004600090615
0.05179166667,0.0004425099178
0.0518125,0.0004412636335
0.05183333333,0.0004090877774
0.05185416667,0.0003860000579
0.051875,0.0003594906593
0.05189583333,0.0003476801794
0.05191666667,0.0003341903212
0.0519375,0.0003210650175
0.05195833333,0.0003152246645
0.05197916667,0.0002938197285
0.052,0.0002997124102
0.05202083333,0.0002748576808
0.05204166667,0.0002728470427
0.0520625,0.0002531755599
0.05208333333,0.000230556645
0.05210416667,0.0002250230173
0.052125,0.0002038129896
0.05214583333,0.0002104904415
0.05216666667,0.0002013453341
0.0521875,0.0002005777642
0.05220833333,0.0001977238135
0.05222916667,0.0002116798423
0.05225,0.0002312016295
0.05227083333,0.000254859071
0.05229166667,0.0002709051769
0.0523125,0.0002770362771
0.05233333333,0.0002757543116
0.05235416667,0.000263855065
0.052375,0.0002684268693
0.05239583333,0.0002714165021
0.05241666667,0.0002953352523
0.0524375,0.0003071213141
0.05245833333,0.000323992339
0.05247916667,0.0003247643472
0.0525,0.0003341772244
0.05252083333,0.0003467707429
0.05254166667,0.0003570405825
0.0525625,0.0003785550361
0.05258333333,0.0003729433811
0.05260416667,0.0003680421796
0.052625,0.0003387844772
0.05264583333,0.0003291821049
0.05266666667,0.0003146050149
0.0526875,0.0003196310718
0.05270833333,0.000323407352
0.05272916667,0.000323880522
0.05275,0.0003323130077
0.05277083333,0.0003209725837
0.05279166667,0.0003375644446
0.0528125,0.0003381705901
0.05283333333,0.0003675449989
0.05285416667,0.0003889905056
0.052875,0.0004209912731
0.05289583333,0.0004601026885
0.05291666667,0.0004736736591
0.0529375,0.0004907988477
0.05295833333,0.0004819354799
0.05297916667,0.0004920634674
0.053,0.0004731389345
0.05302083333,0.0004705200845
0.05304166667,0.0004404517531
0.0530625,0.0004196211812
0.05308333333,0.0003993626742
0.05310416667,0.0003680208174
0.053125,0.000371763017
0.05314583333,0.0003692665778
0.05316666667,0.0003765574656
0.0531875,0.0003761397675
0.05320833333,0.0003540424223
0.05322916667,0.0003206255205
0.05325,0.0002889333409
0.05327083333,0.0002588632633
0.05329166667,0.0002301730565
0.0533125,0.0002027134615
0.05333333333,0.0001630705374
0.05335416667,0.0001203926804
0.053375,5.802514352e-05
0.05339583333,1.904998317e-05
0.05341666667,-2.759559902e-05
0.0534375,-6.523218326e-05
0.05345833333,-9.193162259e-05
0.05347916667,-0.0001199828766
0.0535,-0.0001355102577
0.05352083333,-0.0001605622238
0.05354166667,-0.0001655783271
0.0535625,-0.0001684855379
0.05358333333,-0.000174358036
0.05360416667,-0.0001992071338
0.053625,-0.0002441744437
0.05364583333,-0.0002908896422
0.05366666667,-0.000337026926
0.0536875,-0.000363780302
0.05370833333,-0.0003775327059
0.05372916667,-0.0003809400077
0.05375,-0.0003867658961
0.05377083333,-0.0003963368654
0.05379166667,-0.0004159213568
0.0538125,-0.0004265799362
0.05383333333,-0.0004318439751
0.05385416667,-0.00043512095
0.053875,-0.0004365764617
0.05389583333,-0.0004408599925
0.05391666667,-0.0004477842594
0.0539375,-0.00046023904
0.05395833333,-0.0004762039753
0.05397916667,-0.0004919455969
0.054,-0.0005002866383
0.05402083333,-0.0005266922526
0.05404166667,-0.0005581726437
0.0540625,-0.0005964680458
0.05408333333,-0.0006317812367
0.05410416667,-0.0006562253693
0.054125,-0.0006691742456
0.05414583333,-0.0006479976
0.05416666667,-0.0006368043832
0.0541875,-0.0006228603888
0.05420833333,-0.0006278429646
0.05422916667,-0.0006429266068
0.05425,-0.0006707845023
0.05427083333,-0.0006932266988
0.05429166667,-0.0007005499792
0.0543125,-0.0007021563943
0.05433333333,-0.0006873754901
0.05435416667,-0.0006849451456
0.054375,-0.0006694109179
0.05439583333,-0.0006529361126
0.05441666667,-0.0006202939549
0.0544375,-0.0005788265262
0.05445833333,-0.0005394017207
0.05447916667,-0.0005065250443
0.0545,-0.000508093799
0.05452083333,-0.0005084950244
0.05454166667,-0.0005228104419
0.0545625,-0.0005133980885
0.05458333333,-0.0005047905724
0.05460416667,-0.0004900374333
0.054625,-0.000499671034
0.05464583333,-0.0005147150951
0.05466666667,-0.0005264647771
0.0546875,-0.0005307737738
0.05470833333,-0.0005134595558
0.05472916667,-0.0005102668656
0.05475,-0.0005208981456
0.05477083333,-0.0005500172265
0.05479166667,-0.0005783990491
0.0548125,-0.0005978541449
0.05483333333,-0.0006017037085
0.05485416667,-0.0006050244556
0.054875,-0.000622673484
0.05489583333,-0.0006513627595
0.05491666667,-0.0006822110736
0.0549375,-0.0006971542025
0.05495833333,-0.0007118944195
0.05497916667,-0.0007218296523
0.055,-0.0007544344408
0.05502083333,-0.0007982695242
0.05504166667,-0.0008484132704
0.0550625,-0.0008808484999
0.05508333333,-0.0008962191641
0.05510416667,-0.0009002462612
0.055125,-0.0009091686807
0.05514583333,-0.0009566516965
0.05516666667,-0.0009963165503
0.0551875,-0.001036895788
0.05520833333,-0.001046065474
0.05522916667,-0.001028862433
0.05525,-0.0010137707
0.05527083333,-0.001014981885
0.05529166667,-0.00103621243
0.0553125,-0.001061259187
0.05533333333,-0.001082386589
0.05535416667,-0.001072488958
0.055375,-0.001068114536
0.05539583333,-0.001063285512
0.05541666667,-0.00108436041
0.0554375,-0.001111533027
0.05545833333,-0.00111990131
0.05547916667,-0.001113576815
0.0555,-0.001083092764
0.05552083333,-0.001060342882
0.05554166667,-0.001053222571
0.0555625,-0.001084189164
0.05558333333,-0.001119117253
0.05560416667,-0.001138774096
0.055625,-0.001149598625
0.05564583333,-0.00115347188
0.05566666667,-0.001159724547
0.0556875,-0.00118141924
0.05570833333,-0.001197669888
0.05572916667,-0.001213467564
0.05575,-0.00122053572
0.05577083333,-0.001203130581
0.05579166667,-0.001196203986
0.0558125,-0.001183481188
0.05583333333,-0.001196701895
0.05585416667,-0.00121158734
0.055875,-0.001230269088
0.05589583333,-0.001246378059
0.05591666667,-0.001270215726
0.0559375,-0.001302998979
0.05595833333,-0.001317160903
0.05597916667,-0.00133457582
0.056,-0.001330393134
0.05602083333,-0.001327861217
0.05604166667,-0.00129757321
0.0560625,-0.0012767429
0.05608333333,-0.001264753286
0.05610416667,-0.001271014102
0.056125,-0.001313796965
0.05614583333,-0.001343039796
0.05616666667,-0.001388615114
0.0561875,-0.00141018955
0.05620833333,-0.001433933852
0.05622916667,-0.001451170421
0.05625,-0.001456231112
0.05627083333,-0.001449691597
0.05629166667,-0.001437361119
0.0563125,-0.001425094088
0.05633333333,-0.001408332027
0.05635416667,-0.001408030745
0.056375,-0.001405577175
0.05639583333,-0.001415777719
0.05641666667,-0.001406477881
0.0564375,-0.001419389271
0.05645833333,-0.001413366408
0.05647916667,-0.001404934679
0.0565,-0.001410210505
0.05652083333,-0.001404482056
0.05654166667,-0.001427369309
0.0565625,-0.001436385792
0.05658333333,-0.001452734228
0.05660416667,-0.001458137529
0.056625,-0.001466212911
0.05664583333,-0.001472891541
0.05666666667,-0.001468384988
0.0566875,-0.001467288239
0.05670833333,-0.001463817782
0.05672916667,-0.001469629351
0.05675,-0.001463833847
0.05677083333,-0.001473869081
0.05679166667,-0.001478512189
0.0568125,-0.001493711025
0.05683333333,-0.001521089114
0.05685416667,-0.001537682605
0.056875,-0.001543102553
0.05689583333,-0.00153129932
0.05691666667,-0.001514907693
0.0569375,-0.00148452865
0.05695833333,-0.001465798705
0.05697916667,-0.001443676767
0.057,-0.001439173357
0.05702083333,-0.001430709846
0.05704166667,-0.001437769271
0.0570625,-0.001451037126
0.05708333333,-0.001469285227
0.05710416667,-0.001486918773
0.057125,-0.001477221493
0.05714583333,-0.001475137193
0.05716666667,-0.001459561056
0.0571875,-0.001461973879
0.05720833333,-0.001454225043
0.05722916667,-0.001443716232
0.05725,-0.001435270417
0.05727083333,-0.001427988638
0.05729166667,-0.001428263029
0.0573125,-0.001416596584
0.05733333333,-0.001430723816
0.05735416667,-0.001427814132
0.057375,-0.00145283388
0.05739583333,-0.001458508428
0.05741666667,-0.001475619385
0.0574375,-0.001487837988
0.05745833333,-0.001486531924
0.05747916667,-0.001504798071
0.0575,-0.001505147433
0.05752083333,-0.001535214484
0.05754166667,-0.00154163572
0.0575625,-0.001563391765
0.05758333333,-0.001574972644
0.05760416667,-0.001581225661
0.057625,-0.001587758772
0.05764583333,-0.001600544667
0.05766666667,-0.001625664299
0.0576875,-0.001626133686
0.05770833333,-0.001650916529
0.05772916667,-0.001641878393
0.05775,-0.001670857775
0.05777083333,-0.001699203742
0.05779166667,-0.001744987443
0.0578125,-0.001799508696
0.05783333333,-0.00181781617
0.05785416667,-0.001834952622
0.057875,-0.001831576112
0.05789583333,-0.001841087826
0.05791666667,-0.001840552082
0.0579375,-0.001845133025
0.05795833333,-0.001827200176
0.05797916667,-0.001826443011
0.058,-0.00181498134
0.05802083333,-0.001826337771
0.05804166667,-0.001864933642
0.0580625,-0.00189862214
0.05808333333,-0.001958928769
0.05810416667,-0.001978103304
0.058125,-0.002005026909
0.05814583333,-0.002001534216
0.05816666667,-0.001999644097
0.0581875,-0.002003446221
0.05820833333,-0.001994599821
0.05822916667,-0.001989674289
0.05825,-0.001958949724
0.05827083333,-0.001945867669
0.05829166667,-0.001964871073
0.0583125,-0.001998257125
0.05833333333,-0.002053093864
0.05835416667,-0.002097518649
0.058375,-0.002117450582
0.05839583333,-0.002137623262
0.05841666667,-0.002133900067
0.0584375,-0.002144368133
0.05845833333,-0.002151067602
0.05847916667,-0.002139239805
0.0585,-0.002133355942
0.05852083333,-0.002084153937
0.05854166667,-0.002082752064
0.0585625,-0.002075753408
0.05858333333,-0.002113780705
0.05860416667,-0.002161263255
0.058625,-0.002184255514
0.05864583333,-0.002229720587
0.05866666667,-0.002236279659
0.0586875,-0.002284910996
0.05870833333,-0.00230489322
0.05872916667,-0.002334782388
0.05875,-0.002342618536
0.05877083333,-0.002339150757
0.05879166667,-0.002334088087
0.0588125,-0.002287901472
0.05883333333,-0.002272884129
0.05885416667,-0.002236559289
0.058875,-0.002251275815
0.05889583333,-0.002264263574
0.05891666667,-0.002288332675
0.0589375,-0.002318081679
0.05895833333,-0.002330496674
0.05897916667,-0.002339506289
0.059,-0.002320320113
0.05902083333,-0.002329802141
0.05904166667,-0.002309676493
0.0590625,-0.002311909571
0.05908333333,-0.002272420563
0.05910416667,-0.002221870469
0.059125,-0.002160622971
0.05914583333,-0.00209236634
0.05916666667,-0.002083387459
0.0591875,-0.002070263494
0.05920833333,-0.002110536443
0.05922916667,-0.002125950297
0.05925,-0.002125937026
0.05927083333,-0.002108375076
0.05929166667,-0.002109061228
0.0593125,-0.002129035769
0.05933333333,-0.002148544649
0.05935416667,-0.002155305818
0.059375,-0.002109431662
0.05939583333,-0.002090788912
0.05941666667,-0.002023710404
0.0594375,-0.001975419931
0.05945833333,-0.001970128156
0.05947916667,-0.001964801457
0.0595,-0.00198152801
0.05952083333,-0.00198170892
0.05954166667,-0.001973664388
0.0595625,-0.001985260984
0.05958333333,-0.002008424141
0.05960416667,-0.002016944811
0.059625,-0.002035820391
0.05964583333,-0.002012274927
0.05966666667,-0.0019889588
0.0596875,-0.001951484825
0.05970833333,-0.001936758752
0.05972916667,-0.001940726768
0.05975,-0.001922535943
0.05977083333,-0.001908260747
0.05979166667,-0.001881370787
0.0598125,-0.001882275334
0.05983333333,-0.001884047408
0.05985416667,-0.001904348959
0.059875,-0.001899649622
0.05989583333,-0.001893874025
0.05991666667,-0.001870347071
0.0599375,-0.001837282907
0.05995833333,-0.001846795669
0.05997916667,-0.001828241278
0.06,-0.00185699109
0.06002083333,-0.00185031991
0.06004166667,-0.001845224295
0.0600625,-0.001846059924
0.06008333333,-0.001846952015
0.06010416667,-0.001885507372
0.060125,-0.00190971361
0.06014583333,-0.001941756927
0.06016666667,-0.00194739108
0.0601875,-0.001942730742
0.06020833333,-0.001923922566
0.06022916667,-0.001924557728
0.06025,-0.001933458727
0.06027083333,-0.001944811433
0.06029166667,-0.001954320353
0.0603125,-0.001964436145
0.06033333333,-0.001977199456
0.06035416667,-0.00198470382
0.060375,-0.002006522845
0.06039583333,-0.002010201104
0.06041666667,-0.002037975704
0.0604375,-0.002024238929
0.06045833333,-0.002015554812
0.06047916667,-0.002007142641
0.0605,-0.001974016195
0.06052083333,-0.001966281328
0.06054166667,-0.001941618044
0.0605625,-0.001932210056
0.06058333333,-0.00191688526
0.06060416667,-0.001902678399
0.060625,-0.001870377106
0.06064583333,-0.001854185248
0.06066666667,-0.001831784728
0.0606875,-0.001820709207
0.06070833333,-0.001801569015
0.06072916667,-0.00176348479
0.06075,-0.00175996765
0.06077083333,-0.001723798458
0.06079166667,-0.001704652212
0.0608125,-0.001653266139
0.06083333333,-0.001625768142
0.06085416667,-0.00159786595
0.060875,-0.001574086258
0.06089583333,-0.001560624107
0.06091666667,-0.001519865938
0.0609375,-0.001499782084
0.06095833333,-0.001449943287
0.06097916667,-0.001423999085
0.061,-0.001364633441
0.06102083333,-0.001325072022
0.06104166667,-0.001278135111
0.0610625,-0.001232564449
0.06108333333,-0.001182739623
0.06110416667,-0.001107800403
0.061125,-0.001065414399
0.06114583333,-0.0009846901521
0.06116666667,-0.0009561937768
0.0611875,-0.0008969435585
0.06120833333,-0.000861613953
0.06122916667,-0.0008168350323
0.06125,-0.0007515423349
0.06127083333,-0.0007004835061
0.06129166667,-0.0006184175145
0.0613125,-0.000566757808
0.06133333333,-0.0004961809609
0.06135416667,-0.0004784783523
0.061375,-0.0004124477855
0.06139583333,-0.000353960495
0.06141666667,-0.0002505612792
0.0614375,-0.0001618528768
0.06145833333,-0.0001134765407
0.06147916667,-3.511186515e-05
0.0615,-1.555775452e-05
0.06152083333,3.453351019e-05
0.06154166667,2.824055628e-05
0.0615625,5.391307059e-05
0.06158333333,6.640772335e-05
0.06160416667,7.66481171e-05
0.061625,9.362330456e-05
0.06164583333,9.595935262e-05
0.06166666667,0.0001326587226
0.0616875,0.0001448948751
0.06170833333,0.0002006942523
0.06172916667,0.0002225441713
0.06175,0.0002678030287
0.06177083333,0.0002634739212
0.06179166667,0.0002555230458
0.0618125,0.000253128499
0.06183333333,0.0002246575605
0.06185416667,0.0002439126838
0.061875,0.000232054037
0.06189583333,0.0002620432351
0.06191666667,0.0002673312265
0.0619375,0.0002633386757
0.06195833333,0.0002449351305
0.06197916667,0.0002311756834
0.062,0.0002239784371
0.06202083333,0.0002238557499
0.06204166667,0.0002335156751
0.0620625,0.0002140694705
0.06208333333,0.0002248894598
0.06210416667,0.0002215505519
0.062125,0.0002442487457
0.06214583333,0.0002454322821
0.06216666667,0.0002452445915
0.0621875,0.0002330189163
0.06220833333,0.0002253327111
0.06222916667,0.0002031917975
0.06225,0.000170611951
0.06227083333,0.0001690177742
0.06229166667,0.0001248041808
0.0623125,0.0001123893671
0.06233333333,7.667814498e-05
0.06235416667,9.612141002e-05
0.062375,0.0001126206698
0.06239583333,0.0001234631782
0.06241666667,0.000124291837
0.0624375,8.064021677e-05
0.06245833333,6.722650869e-05
0.06247916667,2.650951865e-05
0.0625,4.036200698e-05
0.06252083333,2.305713497e-05
0.06254166667,1.527849417e-05
0.0625625,-1.366616561e-05
0.06258333333,-7.044197264e-05
0.06260416667,-8.913427155e-05
0.062625,-0.0001246599277
0.06264583333,-0.000109406501
0.06266666667,-0.0001205904846
0.0626875,-0.0001230381604
0.06270833333,-0.0001528282737
0.06272916667,-0.0001760730665
0.06275,-0.0001838657336
0.06277083333,-0.0001725132897
0.06279166667,-0.0001318229188
0.0628125,-0.0001325277117
0.06283333333,-0.0001274351089
0.06285416667,-0.00016657995
0.062875,-0.0001771654934
0.06289583333,-0.0001912702865
0.06291666667,-0.0001702574373
0.0629375,-0.0001362145413
0.06295833333,-0.0001057244299
0.06297916667,-6.610070704e-05
0.063,-5.393936226e-05
0.06302083333,-1.041185078e-05
0.06304166667,9.520595995e-06
0.0630625,6.64436011e-05
0.06308333333,0.0001109393343
0.06310416667,0.0001667901088
0.063125,0.0002200149465
0.06314583333,0.0002611755044
0.06316666667,0.0003241811937
0.0631875,0.0003802145075
0.06320833333,0.0004715174437
0.06322916667,0.0005443605478
0.06325,0.0006154078874
0.06327083333,0.0006828321493
0.06329166667,0.0007489172858
0.0633125,0.0007999532972
0.06333333333,0.0008392233285
0.06335416667,0.0008820951916
0.063375,0.0009327844018
0.06339583333,0.001008010004
0.06341666667,0.001054008259
0.0634375,0.001113379723
0.06345833333,0.00116117741
0.06347916667,0.001212608768
0.0635,0.001269392553
0.06352083333,0.00133205927
0.06354166667,0.001404162031
0.0635625,0.001451608492
0.06358333333,0.001494471682
0.06360416667,0.001498683821
0.063625,0.001498626196
0.06364583333,0.001503991196
0.06366666667,0.001521953265
0.0636875,0.001548374305
0.06370833333,0.001577510615
0.06372916667,0.001606735634
0.06375,0.001613581087
0.06377083333,0.001634942368
0.06379166667,0.001656934153
0.0638125,0.001705153962
0.06383333333,0.00175835134
0.06385416667,0.001804838423
0.063875,0.001823515398
0.06389583333,0.001819226774
0.06391666667,0.001811174327
0.0639375,0.001817444223
0.06395833333,0.00184043881
0.06397916667,0.00186120125
0.064,0.001892740256
0.06402083333,0.00191381108
0.06404166667,0.001945108408
0.0640625,0.00196803268
0.06408333333,0.001988962293
0.06410416667,0.002020360902
0.064125,0.002044537105
0.06414583333,0.002055467339
0.06416666667,0.002041617641
0.0641875,0.00202345592
0.06420833333,0.002005729824
0.06422916667,0.002008404583
0.06425,0.002010863274
0.06427083333,0.002022270346
0.06429166667,0.002030614996
0.0643125,0.002056972589
0.06433333333,0.002075912664
0.06435416667,0.002073931973
0.064375,0.002079787198
0.06439583333,0.002069340087
0.06441666667,0.002073738258
0.0644375,0.002057889476
0.06445833333,0.002036947757
0.06447916667,0.002018629108
0.0645,0.002000439679
0.06452083333,0.00199504476
0.06454166667,0.001979453955
0.0645625,0.001992989564
0.06458333333,0.00200249278
0.06460416667,0.002019677311
0.064625,0.002021545777
0.06464583333,0.002025153255
0.06466666667,0.002039605053
0.0646875,0.002049407223
0.06470833333,0.00206805882
0.06472916667,0.002068747301
0.06475,0.0020745527
0.06477083333,0.002075211611
0.06479166667,0.002074408112
0.0648125,0.00207939418
0.06483333333,0.002090069
0.06485416667,0.002100785961
0.064875,0.002117799595
0.06489583333,0.002127223648
0.06491666667,0.002141857054
0.0649375,0.002169946209
0.06495833333,0.002185989171
0.06497916667,0.002210909035
0.065,0.002220184542
0.06502083333,0.002236205386
0.06504166667,0.002251956379
0.0650625,0.00226955628
0.06508333333,0.002295933431
0.06510416667,0.002322915941
0.065125,0.002346890746
0.06514583333,0.002358358819
0.06516666667,0.002375554526
0.0651875,0.002388801193
0.06520833333,0.002417428652
0.06522916667,0.002435229952
0.06525,0.00244882307
0.06527083333,0.002462010132
0.06529166667,0.002461699769
0.0653125,0.002472771797
0.06533333333,0.002485803794
0.06535416667,0.002510219812
0.065375,0.00253163348
0.06539583333,0.002553388942
0.06541666667,0.0025532695
0.0654375,0.002558816457
0.06545833333,0.00257028034
0.06547916667,0.002585902577
0.0655,0.002609356074
0.06552083333,0.00261801458
0.06554166667,0.002634882461
0.0655625,0.002627927111
0.06558333333,0.002631472424
0.06560416667,0.002648270223
0.065625,0.002664090367
0.06564583333,0.002696265467
0.06566666667,0.002719724085
0.0656875,0.002743033459
0.06570833333,0.002764555626
0.06572916667,0.002790307626
0.06575,0.002812019782
0.06577083333,0.002833061852
0.06579166667,0.002845764393
0.0658125,0.002859919798
0.06583333333,0.002868298441
0.06585416667,0.002889113734
0.065875,0.002915597288
0.06589583333,0.002942858031
0.06591666667,0.002989876084
0.0659375,0.003016173141
0.06595833333,0.003051091218
0.06597916667,0.003079765243
0.066,0.003109146608
0.06602083333,0.003153828438
0.06604166667,0.003186406335
0.0660625,0.00321390247
0.06608333333,0.003223038744
0.06610416667,0.003234058851
0.066125,0.003251648275
0.06614583333,0.003276258241
0.06616666667,0.003290624591
0.0661875,0.003308566753
0.06620833333,0.003329921281
0.06622916667,0.003348750528
0.06625,0.003374245251
0.06627083333,0.003395735985
0.06629166667,0.003416816238
0.0663125,0.003430467797
0.06633333333,0.00343240588
0.06635416667,0.003423270769
0.066375,0.003417716129
0.06639583333,0.003407026641
0.06641666667,0.003410097444
0.0664375,0.003413337516
0.06645833333,0.003408343764
0.06647916667,0.00342355785
0.0665,0.003431758843
0.06652083333,0.003441634355
0.06654166667,0.003445770591
0.0665625,0.003443035297
0.06658333333,0.003442310728
0.06660416667,0.003436283208
0.066625,0.003433088772
0.06664583333,0.003425099654
0.06666666667,0.003410200356
0.0666875,0.003402296687
0.06670833333,0.003392501501
0.06672916667,0.003392215353
0.06675,0.003403868526
0.06677083333,0.003411607118
0.06679166667,0.003430237295
0.0668125,0.003442801768
0.06683333333,0.003460847773
0.06685416667,0.003475166624
0.066875,0.003492414951
0.06689583333,0.003521042876
0.06691666667,0.003531318624
0.0669375,0.003540775273
0.06695833333,0.003533968469
0.06697916667,0.003536171513
0.067,0.003535251832
0.06702083333,0.003537096083
0.06704166667,0.003550825873
0.0670625,0.003558678087
0.06708333333,0.00358549878
0.06710416667,0.003599201795
0.067125,0.003624691395
0.06714583333,0.003648006124
0.06716666667,0.003674978856
0.0671875,0.00370200281
0.06720833333,0.003720848821
0.06722916667,0.003736738581
0.06725,0.003742818255
0.06727083333,0.003749825759
0.06729166667,0.003745632945
0.0673125,0.003748628078
0.06733333333,0.003737902269
0.06735416667,0.003735148115
0.067375,0.003740163986
0.06739583333,0.003749382449
0.06741666667,0.003763609566
0.0674375,0.003767166054
0.06745833333,0.003768638242
0.06747916667,0.003762601875
0.0675,0.003761732951
0.06752083333,0.003757546889
0.06754166667,0.003765877336
0.0675625,0.00376838888
0.06758333333,0.003763955086
0.06760416667,0.003760694293
0.067625,0.00375187723
0.06764583333,0.003759673331
0.06766666667,0.00377026503
0.0676875,0.003790016286
0.06770833333,0.00379553833
0.06772916667,0.003801331855
0.06775,0.003798371181
0.06777083333,0.003798233578
0.06779166667,0.003797484562
0.0678125,0.003799038241
0.06783333333,0.003803094616
0.06785416667,0.003786437679
0.067875,0.003766720183
0.06789583333,0.003731588833
0.06791666667,0.003715364262
0.0679375,0.003702657297
0.06795833333,0.003702481743
0.06797916667,0.003700534813
0.068,0.00369186583
0.06802083333,0.003682056209
0.06804166667,0.003665370401
0.0680625,0.003663209733
0.06808333333,0.003641868243
0.06810416667,0.003627341008
0.068125,0.003601368284
0.06814583333,0.003567190841
0.06816666667,0.003528419882
0.0681875,0.003483144566
0.06820833333,0.003445807612
0.06822916667,0.003406799864
0.06825,0.003375080414
0.06827083333,0.00334258005
0.06829166667,0.003317815717
0.0683125,0.003293435555
0.06833333333,0.003279039403
0.06835416667,0.003266705899
0.068375,0.00326226675
0.06839583333,0.003259020858
0.06841666667,0.003249685746
0.0684375,0.003243230283
0.06845833333,0.00322589674
0.06847916667,0.003215915058
0.0685,0.003197749611
0.06852083333,0.003183016554
0.06854166667,0.003164891386
0.0685625,0.00315130339
0.06858333333,0.00314826332
0.06860416667,0.003138673725
0.068625,0.003136299085
0.06864583333,0.00313465856
0.06866666667,0.003140425077
0.0686875,0.00314988778
0.06870833333,0.003162807319
0.06872916667,0.003168621566
0.06875,0.003179219551
0.06877083333,0.003188370261
0.06879166667,0.003199624363
0.0688125,0.003210563445
0.06883333333,0.003216949059
0.06885416667,0.003229654394
0.068875,0.003235484939
0.06889583333,0.003248531139
0.06891666667,0.00325122592
0.0689375,0.003258612473
0.06895833333,0.003265737556
0.06897916667,0.003267529421
0.069,0.003275501775
0.06902083333,0.003276349744
0.06904166667,0.003281379584
0.0690625,0.003283284139
0.06908333333,0.003290312598
0.06910416667,0.003292958252
0.069125,0.003298616037
0.06914583333,0.003300708253
0.06916666667,0.003306587692
0.0691875,0.003313595895
0.06920833333,0.003312641056
0.06922916667,0.003319386626
0.06925,0.003316496266
0.06927083333,0.003321180819
0.06929166667,0.003319392912
0.0693125,0.003314052708
0.06933333333,0.003303116653
0.06935416667,0.003288616193
0.069375,0.003276325064
0.06939583333,0.003266661428
0.06941666667,0.003264870262
0.0694375,0.003256284632
0.06945833333,0.003253581235
0.06947916667,0.003239654005
0.0695,0.003232138697
0.06952083333,0.003228017362
0.06954166667,0.003225523047
0.0695625,0.00322539825
0.06958333333,0.003215437056
0.06960416667,0.00320796296
0.069625,0.003199977102
0.06964583333,0.003195754485
0.06966666667,0.003190069692
0.0696875,0.003178746672
0.06970833333,0.003165238304
0.06972916667,0.003153444733
0.06975,0.003138633911
0.06977083333,0.003127272474
0.06979166667,0.003104017815
0.0698125,0.003079594579
0.06983333333,0.003058266593
0.06985416667,0.003034654073
0.069875,0.003022904508
0.06989583333,0.00300044287
0.06991666667,0.002987512155
0.0699375,0.002969728084
0.06995833333,0.002958802739
0.06997916667,0.002958250465
0.07,0.002951241564
0.07002083333,0.00294863875
0.07004166667,0.002933272161
0.0700625,0.002915560035
0.07008333333,0.002893278375
0.07010416667,0.002873237012
0.070125,0.002853489947
0.07014583333,0.002838548506
0.07016666667,0.002825692529
0.0701875,0.002811599988
0.07020833333,0.002797715133
0.07022916667,0.002780095441
0.07025,0.002770068124
0.07027083333,0.002760143718
0.07029166667,0.00276229484
0.0703125,0.002759824973
0.07033333333,0.002754485002
0.07035416667,0.002745985519
0.070375,0.002731409157
0.07039583333,0.002721700119
0.07041666667,0.002708097687
0.0704375,0.002700286685
0.07045833333,0.002686539665
0.07047916667,0.002674497664
0.0705,0.002656985773
0.07052083333,0.002637519268
0.07054166667,0.002619141247
0.0705625,0.002600081498
0.07058333333,0.00258283224
0.07060416667,0.002556551481
0.070625,0.002532361075
0.07064583333,0.002498080954
0.07066666667,0.002467524493
0.0706875,0.002436280716
0.07070833333,0.002405781765
0.07072916667,0.002372032963
0.07075,0.002338671824
0.07077083333,0.002305889037
0.07079166667,0.002272290876
0.0708125,0.002240188885
0.07083333333,0.002203386975
0.07085416667,0.002172338311
0.070875,0.002136954106
0.07089583333,0.002106986009
0.07091666667,0.002069495386
0.0709375,0.00203498872
0.07095833333,0.001996416831
0.07097916667,0.001953786705
0.071,0.00191538746
0.07102083333,0.001871950575
0.07104166667,0.001833026763
0.0710625,0.001789135742
0.07108333333,0.001752887969
0.07110416667,0.001714821439
0.071125,0.001683340641
0.07114583333,0.00165294297
0.07116666667,0.001625551609
0.0711875,0.001598828239
0.07120833333,0.001560917473
0.07122916667,0.001525928732
0.07125,0.001485531218
0.07127083333,0.001451627817
0.07129166667,0.001410379773
0.0713125,0.001368546276
0.07133333333,0.001325104618
0.07135416667,0.001282078447
0.071375,0.001245168503
0.07139583333,0.001203656895
0.07141666667,0.00116813404
0.0714375,0.001128924079
0.07145833333,0.00109664409
0.07147916667,0.001059330301
0.0715,0.00103095849
0.07152083333,0.001005355734
0.07154166667,0.0009804277215
0.0715625,0.0009580752812
0.07158333333,0.0009278510697
0.07160416667,0.0009045116021
0.071625,0.0008768775733
0.07164583333,0.0008568394696
0.07166666667,0.0008307543467
0.0716875,0.0008017109358
0.07170833333,0.0007730130455
0.07172916667,0.0007437613094
0.07175,0.0007207958843
0.07177083333,0.0007024178631
0.07179166667,0.0006885831244
0.0718125,0.00067208783
0.07183333333,0.0006601694622
0.07185416667,0.0006444362807
0.071875,0.0006365677691
0.07189583333,0.0006305215647
0.07191666667,0.0006255391636
0.0719375,0.0006192643195
0.07195833333,0.0006052716635
0.07197916667,0.0005926113226
0.072,0.0005777943297
0.07202083333,0.0005680368049
0.07204166667,0.0005595691036
0.0720625,0.0005502607673
0.07208333333,0.0005400321097
0.07210416667,0.0005328282132
0.072125,0.0005272079725
0.07214583333,0.0005246779765
0.07216666667,0.0005225425703
0.0721875,0.0005178001011
0.07220833333,0.0005163219757
0.07222916667,0.0005083131837
0.07225,0.0005055906367
0.07227083333,0.0005015275674
0.07229166667,0.0004997016513
0.0723125,0.0004943016684
0.07233333333,0.0004854595754
0.07235416667,0.0004754637775
0.072375,0.0004670191556
0.07239583333,0.0004626893497
0.07241666667,0.0004582509864
0.0724375,0.0004556389758
0.07245833333,0.0004453643051
0.07247916667,0.0004372761468
0.0725,0.0004271233338
0.07252083333,0.0004206482554
0.07254166667,0.0004153387854
0.0725625,0.0004084031971
0.07258333333,0.0003972294217
0.07260416667,0.0003808220499
0.072625,0.0003709035227
0.07264583333,0.0003631235741
0.07266666667,0.0003602449433
0.0726875,0.0003520651953
0.07270833333,0.0003393923689
0.07272916667,0.0003239468497
0.07275,0.000307213515
0.07277083333,0.0002929643088
0.07279166667,0.0002801538503
0.0728125,0.0002644118795
0.07283333333,0.0002437798976
0.07285416667,0.0002215465211
0.072875,0.0001943518291
0.07289583333,0.0001713430538
0.07291666667,0.0001488344424
0.0729375,0.0001263763261
0.07295833333,0.0001008226754
0.07297916667,6.982423656e-05
0.073,3.680862574e-05
0.07302083333,4.764748155e-06
0.07304166667,-2.286741073e-05
0.0730625,-5.411991151e-05
0.07308333333,-8.610927762e-05
0.07310416667,-0.000125813327
0.073125,-0.000165805468
0.07314583333,-0.0002073060605
0.07316666667,-0.0002483195858
0.0731875,-0.0002894849167
0.07320833333,-0.0003334907524
0.07322916667,-0.0003794188669
0.07325,-0.0004298308922
0.07327083333,-0.00047718719
0.07329166667,-0.000521165086
0.0733125,-0.0005609929794
0.07333333333,-0.0006006321637
0.07335416667,-0.0006423032028
0.073375,-0.0006838482805
0.07339583333,-0.0007244384033
0.07341666667,-0.0007617396186
0.0734375,-0.0007985056727
0.07345833333,-0.0008339034976
0.07347916667,-0.0008726263186
0.0735,-0.0009135913569
0.07352083333,-0.000954686373
0.07354166667,-0.0009935235139
0.0735625,-0.001031091204
0.07358333333,-0.001067675767
0.07360416667,-0.001104555558
0.073625,-0.001142400666
0.07364583333,-0.001179752988
0.07366666667,-0.001214899006
0.0736875,-0.001245743013
0.07370833333,-0.00127460598
0.07372916667,-0.001302197576
0.07375,-0.001331987442
0.07377083333,-0.001362040057
0.07379166667,-0.001392640173
0.0738125,-0.001421601628
0.07383333333,-0.001448367257
0.07385416667,-0.001475408208
0.073875,-0.001501852879
0.07389583333,-0.001527374145
0.07391666667,-0.00154967152
0.0739375,-0.00157048332
0.07395833333,-0.001588689513
0.07397916667,-0.001605485915
0.074,-0.001620359602
0.07402083333,-0.001633630483
0.07404166667,-0.001645738492
0.0740625,-0.001656716922
0.07408333333,-0.001666474971
0.07410416667,-0.00167423056
0.074125,-0.001681584166
0.07414583333,-0.001687512966
0.07416666667,-0.001692155376
0.0741875,-0.001695518382
0.07420833333,-0.00169790769
0.07422916667,-0.001698552864
0.07425,-0.001696410123
0.07427083333,-0.001693208818
0.07429166667,-0.001687777461
0.0743125,-0.001682830974
0.07433333333,-0.001677016611
0.07435416667,-0.001672273153
0.074375,-0.001668680226
0.07439583333,-0.0016658901
0.07441666667,-0.001663080417
0.0744375,-0.001659088884
0.07445833333,-0.001657329733
0.07447916667,-0.001656274544
0.0745,-0.001655698521
0.07452083333,-0.001654370455
0.07454166667,-0.001651759841
0.0745625,-0.001648898935
0.07458333333,-0.001645828597
0.07460416667,-0.001643770374
0.074625,-0.001642382587
0.07464583333,-0.001643517171
0.07466666667,-0.001644955017
0.0746875,-0.001647126512
0.07470833333,-0.001649999875
0.07472916667,-0.001655414933
0.07475,-0.001663709292
0.07477083333,-0.001675598091
0.07479166667,-0.001686714008
0.0748125,-0.001695772633
0.07483333333,-0.001703619841
0.07485416667,-0.001712044817
0.074875,-0.001722835936
0.07489583333,-0.001734083984
0.07491666667,-0.001746281632
0.0749375,-0.001756131649
0.07495833333,-0.001764354063
0.07497916667,-0.001773017342
0.075,-0.001783075626
0.07502083333,-0.001795138465
0.07504166667,-0.001807807363
0.0750625,-0.001820107223
0.07508333333,-0.001832002425
0.07510416667,-0.00184545794
0.075125,-0.0018604215
0.07514583333,-0.001876186696
0.07516666667,-0.001891164808
0.0751875,-0.001904525212
0.07520833333,-0.001916837413
0.07522916667,-0.001928373938
0.07525,-0.001940617105
0.07527083333,-0.001953689381
0.07529166667,-0.001967146061
0.0753125,-0.001979610417
0.07533333333,-0.001992224948
0.07535416667,-0.002006205032
0.075375,-0.002021761844
0.07539583333,-0.002038737759
0.07541666667,-0.002056304365
0.0754375,-0.00207393989
0.07545833333,-0.002091341419
0.07547916667,-0.002108076587
0.0755,-0.002124671591
0.07552083333,-0.002141565317
0.07554166667,-0.002157558454
0.0755625,-0.002173576271
0.07558333333,-0.002188706305
0.07560416667,-0.002203766024
0.075625,-0.00221935357
0.07564583333,-0.002234022133
0.07566666667,-0.002249424113
0.0756875,-0.002265058225
0.07570833333,-0.002281316789
0.07572916667,-0.002298745094
0.07575,-0.002316071419
0.07577083333,-0.002332434291
0.07579166667,-0.002349327318
0.0758125,-0.002365716966
0.07583333333,-0.002381666098
0.07585416667,-0.002396662021
0.075875,-0.002409235574
0.07589583333,-0.002420706209
0.07591666667,-0.002430788474
0.0759375,-0.002441505436
0.07595833333,-0.002451218199
0.07597916667,-0.002460184041
0.076,-0.002468368504
0.07602083333,-0.002477316419
0.07604166667,-0.00248813536
0.0760625,-0.002500169212
0.07608333333,-0.002512480132
0.07610416667,-0.002524021314
0.076125,-0.002536796965
0.07614583333,-0.002548452467
0.07616666667,-0.002559195971
0.0761875,-0.00256853411
0.07620833333,-0.002577248961
0.07622916667,-0.002585086273
0.07625,-0.002591434401
0.07627083333,-0.002596831415
0.07629166667,-0.002601312706
0.0763125,-0.002606683178
0.07633333333,-0.002612340031
0.07635416667,-0.002619065344
0.076375,-0.002626146423
0.07639583333,-0.002634059405
0.07641666667,-0.00264030369
0.0764375,-0.002646220848
0.07645833333,-0.002652285388
0.07647916667,-0.002657304052
0.0765,-0.002662549028
0.07652083333,-0.00266529806
0.07654166667,-0.002665060572
0.0765625,-0.002661449369
0.07658333333,-0.002656559693
0.07660416667,-0.002652120078
0.076625,-0.002648343798
0.07664583333,-0.002644465538
0.07666666667,-0.002639920684
0.0766875,-0.00263525662
0.07670833333,-0.002630695701
0.07672916667,-0.002627735026
0.07675,-0.002625777386
0.07677083333,-0.002624987159
0.07679166667,-0.002623556182
0.0768125,-0.002620420884
0.07683333333,-0.002615815029
0.07685416667,-0.002611406147
0.076875,-0.002608321141
0.07689583333,-0.002605778864
0.07691666667,-0.002602745546
0.0769375,-0.002597510815
0.07695833333,-0.002591759432
0.07697916667,-0.002586753108
0.077,-0.002584300702
0.07702083333,-0.002583729802
0.07704166667,-0.002582530724
0.0770625,-0.002579950728
0.07708333333,-0.002575893654
0.07710416667,-0.002571929479
0.077125,-0.002568230964
0.07714583333,-0.002565147355
0.07716666667,-0.002561633009
0.0771875,-0.002556426683
0.07720833333,-0.002549472265
0.07722916667,-0.002541737631
0.07725,-0.002535359003
0.07727083333,-0.002530814614
0.07729166667,-0.002527085599
0.0773125,-0.002522247843
0.07733333333,-0.002516384935
0.07735416667,-0.002510991413
0.077375,-0.002508343896
0.07739583333,-0.002507048892
0.07741666667,-0.002505914308
0.0774375,-0.002503298689
0.07745833333,-0.002499306807
0.07747916667,-0.002496018773
0.0775,-0.002492794767
0.07752083333,-0.002490768675
0.07754166667,-0.002487752354
0.0775625,-0.002484622877
0.07758333333,-0.002480958821
0.07760416667,-0.002476548078
0.077625,-0.002472861437
0.07764583333,-0.002470304491
0.07766666667,-0.002469405998
0.0776875,-0.002468534512
0.07770833333,-0.002467957092
0.07772916667,-0.002466022735
0.07775,-0.002464945894
0.07777083333,-0.002464580582
0.07779166667,-0.002465004334
0.0778125,-0.002465379424
0.07783333333,-0.002464259509
0.07785416667,-0.00246254215
0.077875,-0.002460008021
0.07789583333,-0.002457995666
0.07791666667,-0.002455505542
0.0779375,-0.002452773042
0.07795833333,-0.002448384184
0.07797916667,-0.002443432109
0.078,-0.00243785209
0.07802083333,-0.002432237146
0.07804166667,-0.002426581923
0.0780625,-0.002421096666
0.07808333333,-0.002416021191
0.07810416667,-0.002410006244
0.078125,-0.002404259751
0.07814583333,-0.002397548174
0.07816666667,-0.002390858252
0.0781875,-0.002384325489
0.07820833333,-0.002378253033
0.07822916667,-0.002371604322
0.07825,-0.002363606356
0.07827083333,-0.002354568569
0.07829166667,-0.002345067216
0.0783125,-0.00233657239
0.07833333333,-0.002327543916
0.07835416667,-0.002318739425
0.078375,-0.002309578937
0.07839583333,-0.002300506458
0.07841666667,-0.002292882418
0.0784375,-0.002285261406
0.07845833333,-0.002277953085
0.07847916667,-0.002270954195
0.0785,-0.002265307587
0.07852083333,-0.002260079375
0.07854166667,-0.002255407162
0.0785625,-0.00225047092
0.07858333333,-0.002245848067
0.07860416667,-0.002241493668
0.078625,-0.002237322507
0.07864583333,-0.002233738545
0.07866666667,-0.002228858182
0.0786875,-0.002224461408
0.07870833333,-0.002220140072
0.07872916667,-0.002216687659
0.07875,-0.002213315573
0.07877083333,-0.002210161882
0.07879166667,-0.002206808189
0.0788125,-0.002204512712
0.07883333333,-0.002203471027
0.07885416667,-0.002202801872
0.078875,-0.002202305477
0.07889583333,-0.002200816758
0.07891666667,-0.002199223032
0.0789375,-0.002197319642
0.07895833333,-0.002196584828
0.07897916667,-0.002195257926
0.079,-0.002193663502
0.07902083333,-0.002191353822
0.07904166667,-0.002188230632
0.0790625,-0.002185657853
0.07908333333,-0.002182506956
0.07910416667,-0.002181069693
0.079125,-0.002178996801
0.07914583333,-0.002177989576
0.07916666667,-0.002176696435
0.0791875,-0.002176326234
0.07920833333,-0.002177767921
0.07922916667,-0.00217920728
0.07925,-0.002180699026
0.07927083333,-0.002180998912
0.07929166667,-0.002181926742
0.0793125,-0.002182845725
0.07933333333,-0.002184648765
0.07935416667,-0.002185944701
0.079375,-0.002186754253
0.07939583333,-0.002187222708
0.07941666667,-0.002186630853
0.0794375,-0.002187044127
0.07945833333,-0.002187621314
0.07947916667,-0.002188897692
0.0795,-0.002189760329
0.07952083333,-0.00218908675
0.07954166667,-0.002187834354
0.0795625,-0.002187677426
0.07958333333,-0.002187532838
0.07960416667,-0.002186116297
0.079625,-0.002183959121
0.07964583333,-0.002180131152
0.07966666667,-0.002176517155
0.0796875,-0.002172757639
0.07970833333,-0.002169382526
0.07972916667,-0.002166279592
0.07975,-0.002162812045
0.07977083333,-0.002159149619
0.07979166667,-0.002155424561
0.0798125,-0.002152593108
0.07983333333,-0.002150831977
0.07985416667,-0.002149872947
0.079875,-0.002148027066
0.07989583333,-0.002146439627
0.07991666667,-0.002144515747
0.0799375,-0.002145078499
0.07995833333,-0.002146055689
0.07997916667,-0.002147259191
0.08,-0.002145227976
0.08002083333,-0.002145122504
0.08004166667,-0.002147096675
0.0800625,-0.002149115084
0.08008333333,-0.002152272034
0.08010416667,-0.00215381314
0.080125,-0.002155793132
0.08014583333,-0.002156897681
0.08016666667,-0.002157508396
0.0801875,-0.002157749375
0.08020833333,-0.002156985691
0.08022916667,-0.002156359376
0.08025,-0.002154443646
0.08027083333,-0.002151485067
0.08029166667,-0.002146598417
0.0803125,-0.002142058918
0.08033333333,-0.002137316624
0.08035416667,-0.002132232534
0.080375,-0.00212529581
0.08039583333,-0.002116705989
0.08041666667,-0.00210931059
0.0804375,-0.002100841375
0.08045833333,-0.002092950512
0.08047916667,-0.002082360443
0.0805,-0.002071588533
0.08052083333,-0.00206073653
0.08054166667,-0.002048488939
0.0805625,-0.002035697689
0.08058333333,-0.002022647765
0.08060416667,-0.002009388059
0.080625,-0.00199510972
0.08064583333,-0.001980842091
0.08066666667,-0.001965228235
0.0806875,-0.001949607395
0.08070833333,-0.001932577114
0.08072916667,-0.001916629728
0.08075,-0.001900414005
0.08077083333,-0.001882633311
0.08079166667,-0.001864048536
0.0808125,-0.001843232079
0.08083333333,-0.001822336228
0.08085416667,-0.001799992053
0.080875,-0.001778091188
0.08089583333,-0.001753888675
0.08091666667,-0.001728564617
0.0809375,-0.001702037524
0.08095833333,-0.001675127307
0.08097916667,-0.001648521516
0.081,-0.001621732721
0.08102083333,-0.001595450449
0.08104166667,-0.00156695547
0.0810625,-0.001539096818
0.08108333333,-0.001511278446
0.08110416667,-0.001485174405
0.081125,-0.001459384803
0.08114583333,-0.001432512188
0.08116666667,-0.00140583131
0.0811875,-0.001378486399
0.08120833333,-0.00135289703
0.08122916667,-0.001327099279
0.08125,-0.001302871504
0.08127083333,-0.001277224044
0.08129166667,-0.001252709189
0.0813125,-0.001228075009
0.08133333333,-0.001204236294
0.08135416667,-0.001181996311
0.081375,-0.001159486943
0.08139583333,-0.001137797721
0.08141666667,-0.001114295563
0.0814375,-0.001092300983
0.08145833333,-0.001068290556
0.08147916667,-0.001044499455
0.0815,-0.001019825577
0.08152083333,-0.0009950591484
0.08154166667,-0.0009707734571
0.0815625,-0.0009445375181
0.08158333333,-0.0009191039135
0.08160416667,-0.0008933917852
0.081625,-0.0008691365947
0.08164583333,-0.0008446865249
0.08166666667,-0.0008211192326
0.0816875,-0.0007981567178
0.08170833333,-0.0007765821647
0.08172916667,-0.0007554711192
0.08175,-0.0007346377242
0.08177083333,-0.0007145476411
0.08179166667,-0.0006928007933
0.0818125,-0.0006740245153
0.08183333333,-0.000653977273
0.08185416667,-0.0006367758033
0.081875,-0.0006181577337
0.08189583333,-0.0005992098013
0.08191666667,-0.0005828543799
0.0819375,-0.0005668571102
0.08195833333,-0.0005539603881
0.08197916667,-0.0005402205279
0.082,-0.0005295622395
0.08202083333,-0.0005184324691
0.08204166667,-0.0005095828092
0.0820625,-0.0005002897233
0.08208333333,-0.0004918561317
0.08210416667,-0.0004842151247
0.082125,-0.0004765545891
0.08214583333,-0.0004699552373
0.08216666667,-0.000462633383
0.0821875,-0.0004562810645
0.08220833333,-0.0004485165991
0.08222916667,-0.0004427862295
0.08225,-0.0004359091981
0.08227083333,-0.0004306718765
0.08229166667,-0.0004244783777
0.0823125,-0.0004188387538
0.08233333333,-0.0004140560632
0.08235416667,-0.0004095745098
0.082375,-0.0004051724973
0.08239583333,-0.0004014579463
0.08241666667,-0.0003980863839
0.0824375,-0.0003925675992
0.08245833333,-0.0003894782567
0.08247916667,-0.0003829410416
0.0825,-0.0003791758209
0.08252083333,-0.0003743269481
0.08254166667,-0.0003678894136
0.0825625,-0.0003614940215
0.08258333333,-0.0003532579285
0.08260416667,-0.0003478156868
0.082625,-0.000339489925
0.08264583333,-0.0003323964775
0.08266666667,-0.0003238242352
0.0826875,-0.000314619625
0.08270833333,-0.0003050429514
0.08272916667,-0.0002949058835
0.08275,-0.0002853547921
0.08277083333,-0.0002746992104
0.08279166667,-0.0002653728297
0.0828125,-0.0002531486389
0.08283333333,-0.0002408542787
0.08285416667,-0.0002264387876
0.082875,-0.000213001782
0.08289583333,-0.0001994275808
0.08291666667,-0.0001842625352
0.0829375,-0.0001679858833
0.08295833333,-0.0001493425516
0.08297916667,-0.0001318547584
0.083,-0.0001123074544
0.08302083333,-9.367884195e-05
0.08304166667,-7.36147922e-05
0.0830625,-5.237914957e-05
0.08308333333,-2.996905641e-05
0.08310416667,-7.343393918e-06
0.083125,1.545351552e-05
0.08314583333,3.799346086e-05
0.08316666667,5.970159327e-05
0.0831875,8.319400513e-05
0.08320833333,0.0001079120484
0.08322916667,0.0001325673511
0.08325,0.000156546419
0.08327083333,0.0001808551606
0.08329166667,0.0002048768802
0.0833125,0.0002308016119
0.08333333333,0.0002566315816
0.08335416667,0.0002836711355
0.083375,0.0003104049247
0.08339583333,0.0003365789889
0.08341666667,0.0003652941086
0.0834375,0.0003929130035
0.08345833333,0.0004229360493
0.08347916667,0.0004511119332
0.0835,0.0004814704589
0.08352083333,0.0005109247868
0.08354166667,0.0005389864091
0.0835625,0.0005667817895
0.08358333333,0.0005934254732
0.08360416667,0.0006224403041
0.083625,0.0006498798612
0.08364583333,0.0006756319199
0.08366666667,0.0006995038129
0.0836875,0.0007236333913
0.08370833333,0.0007490738062
0.08372916667,0.0007739879075
0.08375,0.000798897061
0.08377083333,0.0008221616154
0.08379166667,0.0008453473565
0.0838125,0.0008666514768
0.08383333333,0.000888460956
0.08385416667,0.0009092917899
0.083875,0.0009296287317
0.08389583333,0.0009483810863
0.08391666667,0.0009650337161
0.0839375,0.0009802067652
0.08395833333,0.0009952677647
0.08397916667,0.001010630629
0.084,0.00102501316
0.08402083333,0.001038676128
0.08404166667,0.001049666665
0.0840625,0.001060380018
0.08408333333,0.001071801526
0.08410416667,0.001083792769
0.084125,0.001095634536
0.08414583333,0.001105607604
0.08416666667,0.001113706268
0.0841875,0.001122480026
0.08420833333,0.001132453675
0.08422916667,0.001142450492
0.08425,0.001153007615
0.08427083333,0.001161157619
0.08429166667,0.001169275492
0.0843125,0.001177652506
0.08433333333,0.001186388894
0.08435416667,0.001195676741
0.084375,0.001203856082
0.08439583333,0.001211759984
0.08441666667,0.001219344907
0.0844375,0.001227080589
0.08445833333,0.001236095326
0.08447916667,0.001246109488
0.0845,0.001255119452
0.08452083333,0.001263912069
0.08454166667,0.001273044385
0.0845625,0.001282976009
0.08458333333,0.001293765032
0.08460416667,0.001302450779
0.084625,0.001311079366
0.08464583333,0.001319799107
0.08466666667,0.001329005463
0.0846875,0.001337655587
0.08470833333,0.001347843674
0.08472916667,0.001355964341
0.08475,0.001363322255
0.08477083333,0.001371182501
0.08479166667,0.001380346715
0.0848125,0.001389935846
0.08483333333,0.001397258718
0.08485416667,0.001403530827
0.084875,0.001409096178
0.08489583333,0.00141553022
0.08491666667,0.001420964836
0.0849375,0.001425215742
0.08495833333,0.001429403899
0.08497916667,0.001433678088
0.085,0.001437540282
0.08502083333,0.001440698397
0.08504166667,0.001445889939
0.0850625,0.001450890559
0.08508333333,0.001456993865
0.08510416667,0.001462641405
0.085125,0.001468546223
0.08514583333,0.001476149773
0.08516666667,0.0014844588
0.0851875,0.001493997639
0.08520833333,0.00150283752
0.08522916667,0.00151140138
0.08525,0.001520119724
0.08527083333,0.001530763693
0.08529166667,0.001541377511
0.0853125,0.001552396338
0.08533333333,0.001562886871
0.08535416667,0.001573788468
0.085375,0.001585947932
0.08539583333,0.001597690862
0.08541666667,0.001608190592
0.0854375,0.001618835027
0.08545833333,0.001629353734
0.08547916667,0.00163823762
0.0855,0.001647785888
0.08552083333,0.00165526988
0.08554166667,0.001662305323
0.0855625,0.001666922588
0.08558333333,0.00167180947
0.08560416667,0.001676456071
0.085625,0.001678801607
0.08564583333,0.001682131318
0.08566666667,0.00168238976
0.0856875,0.001682611182
0.08570833333,0.00168141746
0.08572916667,0.001679443521
0.08575,0.001678645145
0.08577083333,0.001677041757
0.08579166667,0.001674802741
0.0858125,0.001671292121
0.08583333333,0.00167076895
0.08585416667,0.001669832156
0.085875,0.001669808058
0.08589583333,0.001670491183
0.08591666667,0.00167274347
0.0859375,0.001674558269
0.08595833333,0.001676328946
0.08597916667,0.001677537686
0.086,0.001680703368
0.08602083333,0.001684740069
0.08604166667,0.001687811222
0.0860625,0.001691092737
0.08608333333,0.001692468184
0.08610416667,0.001695731422
0.086125,0.001697567408
0.08614583333,0.00170084415
0.08616666667,0.001703257323
0.0861875,0.001703806687
0.08620833333,0.001703627524
0.08622916667,0.001700649038
0.08625,0.001698822598
0.08627083333,0.001695084036
0.08629166667,0.001690110657
0.0863125,0.001682378701
0.08633333333,0.001672851387
0.08635416667,0.0016628718
0.086375,0.001652677194
0.08639583333,0.001642917283
0.08641666667,0.001631689142
0.0864375,0.001620004419
0.08645833333,0.00160679617
0.08647916667,0.001594426227
0.0865,0.001582561061
0.08652083333,0.001570816035
0.08654166667,0.001559730386
0.0865625,0.00154879631
0.08658333333,0.001536948956
0.08660416667,0.001525694504
0.086625,0.001516472897
0.08664583333,0.001508701593
0.08666666667,0.001504563144
0.0866875,0.001498841913
0.08670833333,0.001493426273
0.08672916667,0.001489171409
0.08675,0.001487299334
0.08677083333,0.001488125417
0.08679166667,0.001488537295
0.0868125,0.001490245224
0.08683333333,0.001489968621
0.08685416667,0.001492761075
0.086875,0.001495836186
0.08689583333,0.001500444021
0.08691666667,0.001504396554
0.0869375,0.001507505658
0.08695833333,0.001511645853
0.08697916667,0.001516940771
0.087,0.001523773884
0.08702083333,0.001529696048
0.08704166667,0.001536533702
0.0870625,0.001543300692
0.08708333333,0.001552576898
0.08710416667,0.00155938149
0.087125,0.001568278298
0.08714583333,0.001576953451
0.08716666667,0.001583794365
0.0871875,0.001592161134
0.08720833333,0.001598875038
0.08722916667,0.001607781625
0.08725,0.001614900073
0.08727083333,0.001624171739
0.08729166667,0.001632311032
0.0873125,0.001641075942
0.08733333333,0.001651363447
0.08735416667,0.00166062091
0.087375,0.001670917147
0.08739583333,0.001679856214
0.08741666667,0.001691825571
0.0874375,0.00170324801
0.08745833333,0.001715820865
0.08747916667,0.001727606636
0.0875,0.001741558779
0.08752083333,0.001756444108
0.08754166667,0.001770918025
0.0875625,0.001786255161
0.08758333333,0.001801651204
0.08760416667,0.001819109428
0.087625,0.00183720619
0.08764583333,0.001854933216
0.08766666667,0.001871011336
