time,data
0,-4.048832736e-08
2.083333333e-05,-4.243464602e-08
4.166666667e-05,-4.436766332e-08
6.25e-05,-4.622662786e-08
8.333333333e-05,-4.810875964e-08
0.0001041666667,-5.002162951e-08
0.000125,-5.197926356e-08
0.0001458333333,-5.397668801e-08
0.0001666666667,-5.591650165e-08
0.0001875,-5.782553814e-08
0.0002083333333,-5.963720184e-08
0.0002291666667,-6.143796583e-08
0.00025,-6.322063939e-08
0.0002708333333,-6.499416827e-08
0.0002916666667,-6.674065389e-08
0.0003125,-6.834645916e-08
0.0003333333333,-6.983370326e-08
0.0003541666667,-7.110449474e-08
0.000375,-7.224874565e-08
0.0003958333333,-7.323255602e-08
0.0004166666667,-7.407126645e-08
0.0004375,-7.473907715e-08
0.0004583333333,-7.511926725e-08
0.0004791666667,-7.523698997e-08
0.0005,-7.498456256e-08
0.0005208333333,-7.44682751e-08
0.0005416666667,-7.366235621e-08
0.0005625,-7.261375856e-08
0.0005833333333,-7.131506408e-08
0.0006041666667,-6.966454436e-08
0.000625,-6.769108296e-08
0.0006458333333,-6.527860563e-08
0.0006666666667,-6.254735041e-08
0.0006875,-5.947168802e-08
0.0007083333333,-5.612960408e-08
0.0007291666667,-5.250991109e-08
0.00075,-4.850633673e-08
0.0007708333333,-4.413395516e-08
0.0007916666667,-3.924787251e-08
0.0008125,-3.400199233e-08
0.0008333333333,-2.837257362e-08
0.0008541666667,-2.250275877e-08
0.000875,-1.63877889e-08
0.0008958333333,-9.939195245e-09
0.0009166666667,-3.172680341e-09
0.0009375,4.051496028e-09
0.0009583333333,1.153798568e-08
0.0009791666667,1.926860627e-08
0.001,2.706877567e-08
0.001020833333,3.492477063e-08
0.001041666667,4.296517275e-08
0.0010625,5.118158697e-08
0.001083333333,5.974893469e-08
0.001104166667,6.844104661e-08
0.001125,7.723914308e-08
0.001145833333,8.593286793e-08
0.001166666667,9.454484484e-08
0.0011875,1.031857195e-07
0.001208333333,1.118915733e-07
0.001229166667,1.207796743e-07
0.00125,1.29611152e-07
0.001270833333,1.383022266e-07
0.001291666667,1.466222983e-07
0.0013125,1.545824517e-07
0.001333333333,1.623036212e-07
0.001354166667,1.698060288e-07
0.001375,1.772371547e-07
0.001395833333,1.843040849e-07
0.001416666667,1.909959195e-07
0.0014375,1.970400376e-07
0.001458333333,2.025428927e-07
0.001479166667,2.07600138e-07
0.0015,2.122919227e-07
0.001520833333,2.167390818e-07
0.001541666667,2.206886194e-07
0.0015625,2.240945349e-07
0.001583333333,2.267223067e-07
0.001604166667,2.286096787e-07
0.001625,2.298788218e-07
0.001645833333,2.305343969e-07
0.001666666667,2.307453286e-07
0.0016875,2.302142974e-07
0.001708333333,2.289730219e-07
0.001729166667,2.267268968e-07
0.00175,2.236023136e-07
0.001770833333,2.196489817e-07
0.001791666667,2.150082139e-07
0.0018125,2.098264105e-07
0.001833333333,2.039530784e-07
0.001854166667,1.973934047e-07
0.001875,1.899193762e-07
0.001895833333,1.815832036e-07
0.001916666667,1.724963568e-07
0.0019375,1.627350628e-07
0.001958333333,1.525730937e-07
0.001979166667,1.417589175e-07
0.002,1.303901769e-07
0.002020833333,1.180705098e-07
0.002041666667,1.049236786e-07
0.0020625,9.097093567e-08
0.002083333333,7.644413103e-08
0.002104166667,6.160227883e-08
0.002125,4.635512596e-08
0.002145833333,3.070122645e-08
0.002166666667,1.437657815e-08
0.0021875,-2.615371919e-09
0.002208333333,-2.004666655e-08
0.002229166667,-3.773864066e-08
0.00225,-5.524511693e-08
0.002270833333,-7.277223091e-08
0.002291666667,-9.026368986e-08
0.0023125,-1.081708518e-07
0.002333333333,-1.263956761e-07
0.002354166667,-1.448576512e-07
0.002375,-1.631807862e-07
0.002395833333,-1.810919628e-07
0.002416666667,-1.986367408e-07
0.0024375,-2.159671624e-07
0.002458333333,-2.333799216e-07
0.002479166667,-2.508883483e-07
0.0025,-2.681839533e-07
0.002520833333,-2.849725433e-07
0.002541666667,-3.007599219e-07
0.0025625,-3.157710466e-07
0.002583333333,-3.299578282e-07
0.002604166667,-3.438269118e-07
0.002625,-3.571865363e-07
0.002645833333,-3.699377942e-07
0.002666666667,-3.816405751e-07
0.0026875,-3.920536642e-07
0.002708333333,-4.01273212e-07
0.002729166667,-4.095101644e-07
0.00275,-4.170672696e-07
0.002770833333,-4.240207545e-07
0.002791666667,-4.300379715e-07
0.0028125,-4.349567462e-07
0.002833333333,-4.382782208e-07
0.002854166667,-4.402980096e-07
0.002875,-4.409291705e-07
0.002895833333,-4.406532526e-07
0.002916666667,-4.393032498e-07
0.0029375,-4.368260136e-07
0.002958333333,-4.328431089e-07
0.002979166667,-4.271608418e-07
0.003,-4.197950432e-07
0.003020833333,-4.109793963e-07
0.003041666667,-4.009729082e-07
0.0030625,-3.900290437e-07
0.003083333333,-3.779343274e-07
0.003104166667,-3.64692994e-07
0.003125,-3.498183503e-07
0.003145833333,-3.336106431e-07
0.003166666667,-3.159464939e-07
0.0031875,-2.974423694e-07
0.003208333333,-2.780583088e-07
0.003229166667,-2.579287752e-07
0.00325,-2.366992362e-07
0.003270833333,-2.140973407e-07
0.003291666667,-1.900427122e-07
0.0033125,-1.647476182e-07
0.003333333333,-1.385695754e-07
0.003354166667,-1.120003219e-07
0.003375,-8.485044845e-08
0.003395833333,-5.724109542e-08
0.003416666667,-2.84703372e-08
0.0034375,1.092259394e-09
0.003458333333,3.15203259e-08
0.003479166667,6.195313063e-08
0.0035,9.217325925e-08
0.003520833333,1.219978429e-07
0.003541666667,1.518113493e-07
0.0035625,1.819984305e-07
0.003583333333,2.127180068e-07
0.003604166667,2.435762667e-07
0.003625,2.741464868e-07
0.003645833333,3.037568206e-07
0.003666666667,3.327177467e-07
0.0036875,3.610169017e-07
0.003708333333,3.895160603e-07
0.003729166667,4.178029656e-07
0.00375,4.458796354e-07
0.003770833333,4.726653913e-07
0.003791666667,4.979582968e-07
0.0038125,5.215387091e-07
0.003833333333,5.438976132e-07
0.003854166667,5.654175652e-07
0.003875,5.861591603e-07
0.003895833333,6.056668553e-07
0.003916666667,6.234637908e-07
0.0039375,6.389171858e-07
0.003958333333,6.52517997e-07
0.003979166667,6.642210337e-07
0.004,6.750744888e-07
0.004020833333,6.84545455e-07
0.004041666667,6.928366361e-07
0.0040625,6.989014878e-07
0.004083333333,7.027123274e-07
0.004104166667,7.040770811e-07
0.004125,7.034655027e-07
0.004145833333,7.012041578e-07
0.004166666667,6.973780842e-07
0.0041875,6.916195048e-07
0.004208333333,6.835820159e-07
0.004229166667,6.726714332e-07
0.00425,6.593454032e-07
0.004270833333,6.43451358e-07
0.004291666667,6.261449244e-07
0.0043125,6.069508345e-07
0.004333333333,5.865202297e-07
0.004354166667,5.638225957e-07
0.004375,5.390930369e-07
0.004395833333,5.119586604e-07
0.004416666667,4.829442446e-07
0.0044375,4.52551518e-07
0.004458333333,4.210273232e-07
0.004479166667,3.883852742e-07
0.0045,3.542239142e-07
0.004520833333,3.178654708e-07
0.004541666667,2.796427054e-07
0.0045625,2.392188776e-07
0.004583333333,1.981488964e-07
0.004604166667,1.559947407e-07
0.004625,1.138158225e-07
0.004645833333,7.039301408e-08
0.004666666667,2.591695214e-08
0.0046875,-2.009648625e-08
0.004708333333,-6.695230326e-08
0.004729166667,-1.137818586e-07
0.00475,-1.5999683e-07
0.004770833333,-2.054392212e-07
0.004791666667,-2.506170347e-07
0.0048125,-2.963922157e-07
0.004833333333,-3.424984811e-07
0.004854166667,-3.891488518e-07
0.004875,-4.344915965e-07
0.004895833333,-4.789545187e-07
0.004916666667,-5.213807981e-07
0.0049375,-5.634739182e-07
0.004958333333,-6.049844501e-07
0.004979166667,-6.466395917e-07
0.005,-6.874113865e-07
0.005020833333,-7.262896133e-07
0.005041666667,-7.626343859e-07
0.0050625,-7.962296422e-07
0.005083333333,-8.278128689e-07
0.005104166667,-8.581396287e-07
0.005125,-8.868965438e-07
0.005145833333,-9.14215093e-07
0.005166666667,-9.381033692e-07
0.0051875,-9.592790775e-07
0.005208333333,-9.765198001e-07
0.005229166667,-9.918817341e-07
0.00525,-1.004941964e-06
0.005270833333,-1.016697524e-06
0.005291666667,-1.026086238e-06
0.0053125,-1.032457703e-06
0.005333333333,-1.035291007e-06
0.005354166667,-1.034438696e-06
0.005375,-1.030652356e-06
0.005395833333,-1.024446192e-06
0.005416666667,-1.015729708e-06
0.0054375,-1.004650358e-06
0.005458333333,-9.894940831e-07
0.005479166667,-9.711430948e-07
0.0055,-9.480298786e-07
0.005520833333,-9.22485242e-07
0.005541666667,-8.936296467e-07
0.0055625,-8.632068784e-07
0.005583333333,-8.302384344e-07
0.005604166667,-7.94588459e-07
0.005625,-7.558872426e-07
0.005645833333,-7.137163038e-07
0.005666666667,-6.690715395e-07
0.0056875,-6.223912123e-07
0.005708333333,-5.741451332e-07
0.005729166667,-5.248286357e-07
0.00575,-4.727188525e-07
0.005770833333,-4.18750119e-07
0.005791666667,-3.607839574e-07
0.0058125,-3.013859953e-07
0.005833333333,-2.396155594e-07
0.005854166667,-1.778700067e-07
0.005875,-1.152237417e-07
0.005895833333,-5.16980343e-08
0.005916666667,1.340092837e-08
0.0059375,8.05444671e-08
0.005958333333,1.484840766e-07
0.005979166667,2.164117774e-07
0.006,2.831951065e-07
0.006020833333,3.483348507e-07
0.006041666667,4.135701772e-07
0.0060625,4.7823454e-07
0.006083333333,5.447196259e-07
0.006104166667,6.099531333e-07
0.006125,6.750003649e-07
0.006145833333,7.368415709e-07
0.006166666667,7.969664466e-07
0.0061875,8.554185911e-07
0.006208333333,9.133004255e-07
0.006229166667,9.711116036e-07
0.00625,1.027251756e-06
0.006270833333,1.080810875e-06
0.006291666667,1.13042347e-06
0.0063125,1.175786792e-06
0.006333333333,1.218736088e-06
0.006354166667,1.258591624e-06
0.006375,1.297661584e-06
0.006395833333,1.332585157e-06
0.006416666667,1.36463359e-06
0.0064375,1.390656394e-06
0.006458333333,1.41281248e-06
0.006479166667,1.430841849e-06
0.0065,1.446382498e-06
0.006520833333,1.459668056e-06
0.006541666667,1.469441372e-06
0.0065625,1.475235081e-06
0.006583333333,1.475652653e-06
0.006604166667,1.470960569e-06
0.006625,1.462483965e-06
0.006645833333,1.449671458e-06
0.006666666667,1.434891715e-06
0.0066875,1.414721282e-06
0.006708333333,1.391261435e-06
0.006729166667,1.360858391e-06
0.00675,1.326149459e-06
0.006770833333,1.286257316e-06
0.006791666667,1.243112479e-06
0.0068125,1.197263373e-06
0.006833333333,1.147995363e-06
0.006854166667,1.095439529e-06
0.006875,1.03822515e-06
0.006895833333,9.766612266e-07
0.006916666667,9.118948583e-07
0.0069375,8.437813221e-07
0.006958333333,7.751204407e-07
0.006979166667,7.030217262e-07
0.007,6.298441235e-07
0.007020833333,5.513472274e-07
0.007041666667,4.703049399e-07
0.0070625,3.85082501e-07
0.007083333333,2.986056984e-07
0.007104166667,2.114264106e-07
0.007125,1.234795235e-07
0.007145833333,3.487496159e-08
0.007166666667,-5.636710654e-08
0.0071875,-1.49607061e-07
0.007208333333,-2.439093691e-07
0.007229166667,-3.383757701e-07
0.00725,-4.296710472e-07
0.007270833333,-5.205895945e-07
0.007291666667,-6.085821838e-07
0.0073125,-6.98826625e-07
0.007333333333,-7.881013744e-07
0.007354166667,-8.783372323e-07
0.007375,-9.657828741e-07
0.007395833333,-1.049957064e-06
0.007416666667,-1.130992473e-06
0.0074375,-1.209313155e-06
0.007458333333,-1.28733484e-06
0.007479166667,-1.364344712e-06
0.0075,-1.439295943e-06
0.007520833333,-1.510722541e-06
0.007541666667,-1.575423653e-06
0.0075625,-1.636133561e-06
0.007583333333,-1.690541581e-06
0.007604166667,-1.743983944e-06
0.007625,-1.792666808e-06
0.007645833333,-1.838956109e-06
0.007666666667,-1.878380431e-06
0.0076875,-1.911460231e-06
0.007708333333,-1.938065907e-06
0.007729166667,-1.959163001e-06
0.00775,-1.977259672e-06
0.007770833333,-1.991477802e-06
0.007791666667,-2.001579333e-06
0.0078125,-2.006049499e-06
0.007833333333,-2.002552719e-06
0.007854166667,-1.99373153e-06
0.007875,-1.977099828e-06
0.007895833333,-1.958100938e-06
0.007916666667,-1.932507757e-06
0.0079375,-1.903686211e-06
0.007958333333,-1.866932053e-06
0.007979166667,-1.823593607e-06
0.008,-1.772841983e-06
0.008020833333,-1.715745952e-06
0.008041666667,-1.654668722e-06
0.0080625,-1.589195108e-06
0.008083333333,-1.520186743e-06
0.008104166667,-1.446372607e-06
0.008125,-1.366167567e-06
0.008145833333,-1.281612867e-06
0.008166666667,-1.190407147e-06
0.0081875,-1.098323423e-06
0.008208333333,-1.001483724e-06
0.008229166667,-9.046128184e-07
0.00825,-8.023512805e-07
0.008270833333,-6.966416777e-07
0.008291666667,-5.853561902e-07
0.0083125,-4.698940756e-07
0.008333333333,-3.528458308e-07
0.008354166667,-2.342847836e-07
0.008375,-1.160004857e-07
0.008395833333,3.874446541e-09
0.008416666667,1.267578682e-07
0.0084375,2.511806088e-07
0.008458333333,3.789479877e-07
0.008479166667,5.033459729e-07
0.0085,6.277642797e-07
0.008520833333,7.466586567e-07
0.008541666667,8.662577216e-07
0.0085625,9.844337683e-07
0.008583333333,1.10414328e-06
0.008604166667,1.223113486e-06
0.008625,1.338721745e-06
0.008645833333,1.450428272e-06
0.008666666667,1.556748316e-06
0.0086875,1.660452995e-06
0.008708333333,1.7629485e-06
0.008729166667,1.86342038e-06
0.00875,1.962725264e-06
0.008770833333,2.054138349e-06
0.008791666667,2.140930519e-06
0.0088125,2.21738901e-06
0.008833333333,2.290717021e-06
0.008854166667,2.35780135e-06
0.008875,2.422357056e-06
0.008895833333,2.481026286e-06
0.008916666667,2.531799737e-06
0.0089375,2.574350901e-06
0.008958333333,2.607474926e-06
0.008979166667,2.634681096e-06
0.009,2.656916195e-06
0.009020833333,2.674063126e-06
0.009041666667,2.686966354e-06
0.0090625,2.689765779e-06
0.009083333333,2.686313564e-06
0.009104166667,2.670883077e-06
0.009125,2.650938541e-06
0.009145833333,2.622530019e-06
0.009166666667,2.590167014e-06
0.0091875,2.55018017e-06
0.009208333333,2.501869403e-06
0.009229166667,2.444553729e-06
0.00925,2.377203145e-06
0.009270833333,2.302950406e-06
0.009291666667,2.222488774e-06
0.0093125,2.136944431e-06
0.009333333333,2.047444696e-06
0.009354166667,1.949731995e-06
0.009375,1.847419981e-06
0.009395833333,1.734772923e-06
0.009416666667,1.619460818e-06
0.0094375,1.497204835e-06
0.009458333333,1.374473982e-06
0.009479166667,1.247283421e-06
0.0095,1.116238991e-06
0.009520833333,9.794816833e-07
0.009541666667,8.356340118e-07
0.0095625,6.877513101e-07
0.009583333333,5.365278071e-07
0.009604166667,3.846736547e-07
0.009625,2.331587012e-07
0.009645833333,7.829098791e-08
0.009666666667,-7.721071427e-08
0.0096875,-2.392574459e-07
0.009708333333,-3.99507428e-07
0.009729166667,-5.617093279e-07
0.00975,-7.17563978e-07
0.009770833333,-8.71614418e-07
0.009791666667,-1.02259412e-06
0.0098125,-1.173904707e-06
0.009833333333,-1.326505753e-06
0.009854166667,-1.477293836e-06
0.009875,-1.625111963e-06
0.009895833333,-1.766411742e-06
0.009916666667,-1.901465339e-06
0.0099375,-2.033817964e-06
0.009958333333,-2.162184956e-06
0.009979166667,-2.292122872e-06
0.01,-2.529097401e-06
0.01002083333,-2.763963039e-06
0.01004166667,-2.879192834e-06
0.0100625,-2.889316875e-06
0.01008333333,-2.885650702e-06
0.01010416667,-2.955968512e-06
0.010125,-3.052932698e-06
0.01014583333,-3.206949259e-06
0.01016666667,-3.289544793e-06
0.0101875,-3.313188927e-06
0.01020833333,-3.301627203e-06
0.01022916667,-3.336341479e-06
0.01025,-3.367014415e-06
0.01027083333,-3.432997573e-06
0.01029166667,-3.475307949e-06
0.0103125,-3.500925004e-06
0.01033333333,-3.486014293e-06
0.01035416667,-3.477591918e-06
0.010375,-3.455141723e-06
0.01039583333,-3.451104249e-06
0.01041666667,-3.385171567e-06
0.0104375,-3.259048071e-06
0.01045833333,-3.120607062e-06
0.01047916667,-3.057679578e-06
0.0105,-3.033824441e-06
0.01052083333,-3.061815278e-06
0.01054166667,-3.020400527e-06
0.0105625,-2.904424264e-06
0.01058333333,-2.735925364e-06
0.01060416667,-2.551546231e-06
0.010625,-2.378603767e-06
0.01064583333,-2.311112667e-06
0.01066666667,-2.221658178e-06
0.0106875,-2.11617612e-06
0.01070833333,-1.901334031e-06
0.01072916667,-1.68650638e-06
0.01075,-1.488632165e-06
0.01077083333,-1.377892886e-06
0.01079166667,-1.224927473e-06
0.0108125,-1.06865491e-06
0.01083333333,-8.787429238e-07
0.01085416667,-6.876099405e-07
0.010875,-4.967134259e-07
0.01089583333,-3.614923401e-07
0.01091666667,-1.386282236e-07
0.0109375,5.640316658e-08
0.01095833333,3.392810015e-07
0.01097916667,5.378186643e-07
0.011,7.686566619e-07
0.01102083333,9.23067887e-07
0.01104166667,1.028703082e-06
0.0110625,1.179678065e-06
0.01108333333,1.380957883e-06
0.01110416667,1.572062956e-06
0.011125,1.809185051e-06
0.01114583333,1.99910528e-06
0.01116666667,2.207842272e-06
0.0111875,2.289349823e-06
0.01120833333,2.440031949e-06
0.01122916667,2.575100325e-06
0.01125,2.690213933e-06
0.01127083333,2.845343943e-06
0.01129166667,3.071735136e-06
0.0113125,3.186908543e-06
0.01133333333,3.315867161e-06
0.01135416667,3.370276772e-06
0.011375,3.459409527e-06
0.01139583333,3.506402436e-06
0.01141666667,3.618716164e-06
0.0114375,3.725429906e-06
0.01145833333,3.85882322e-06
0.01147916667,3.862155609e-06
0.0115,3.905725407e-06
0.01152083333,3.84692612e-06
0.01154166667,3.88653325e-06
0.0115625,3.919969458e-06
0.01158333333,3.96446876e-06
0.01160416667,3.956151886e-06
0.011625,3.867556643e-06
0.01164583333,3.760791287e-06
0.01166666667,3.741491355e-06
0.0116875,3.740620286e-06
0.01170833333,3.821694463e-06
0.01172916667,3.725584975e-06
0.01175,3.541656497e-06
0.01177083333,3.271309652e-06
0.01179166667,3.078119107e-06
0.0118125,2.956377102e-06
0.01183333333,3.003028041e-06
0.01185416667,2.918113978e-06
0.011875,2.762841859e-06
0.01189583333,2.566262083e-06
0.01191666667,2.312912329e-06
0.0119375,2.099333187e-06
0.01195833333,1.988910071e-06
0.01197916667,1.80295433e-06
0.012,1.713369443e-06
0.01202083333,1.424689685e-06
0.01204166667,1.254004019e-06
0.0120625,9.965995105e-07
0.01208333333,8.905903428e-07
0.01210416667,6.546050599e-07
0.012125,3.667775559e-07
0.01214583333,8.043507194e-08
0.01216666667,-5.734310804e-08
0.0121875,-2.589073631e-07
0.01220833333,-3.623543989e-07
0.01222916667,-5.728459769e-07
0.01225,-7.23538335e-07
0.01227083333,-1.046122634e-06
0.01229166667,-1.476199373e-06
0.0123125,-1.809866717e-06
0.01233333333,-1.852397077e-06
0.01235416667,-2.0409841e-06
0.012375,-2.112253469e-06
0.01239583333,-2.310620175e-06
0.01241666667,-2.530199481e-06
0.0124375,-2.885678896e-06
0.01245833333,-3.110376838e-06
0.01247916667,-3.230120001e-06
0.0125,-3.213691571e-06
0.01252083333,-3.22189203e-06
0.01254166667,-3.300874823e-06
0.0125625,-3.499646482e-06
0.01258333333,-3.685620641e-06
0.01260416667,-3.879368251e-06
0.012625,-3.875505172e-06
0.01264583333,-3.924190423e-06
0.01266666667,-3.851300789e-06
0.0126875,-4.017831998e-06
0.01270833333,-4.136620191e-06
0.01272916667,-4.278541383e-06
0.01275,-4.266836186e-06
0.01277083333,-4.382976385e-06
0.01279166667,-4.276991149e-06
0.0128125,-4.246432582e-06
0.01283333333,-4.216489742e-06
0.01285416667,-4.256906323e-06
0.012875,-4.194364465e-06
0.01289583333,-4.181012628e-06
0.01291666667,-3.9390643e-06
0.0129375,-3.834317795e-06
0.01295833333,-3.821293831e-06
0.01297916667,-3.828052741e-06
0.013,-3.658397873e-06
0.01302083333,-3.648054189e-06
0.01304166667,-3.463027042e-06
0.0130625,-3.364261602e-06
0.01308333333,-3.098217803e-06
0.01310416667,-2.918613518e-06
0.013125,-2.672928076e-06
0.01314583333,-2.441706101e-06
0.01316666667,-2.08833444e-06
0.0131875,-1.832059752e-06
0.01320833333,-1.610622348e-06
0.01322916667,-1.579007858e-06
0.01325,-1.459376335e-06
0.01327083333,-1.134045647e-06
0.01329166667,-6.563473107e-07
0.0133125,-4.49861659e-07
0.01333333333,-4.362250365e-07
0.01335416667,-2.35193113e-07
0.013375,7.65607524e-08
0.01339583333,1.825466995e-07
0.01341666667,6.240085781e-07
0.0134375,1.038975142e-06
0.01345833333,1.638684239e-06
0.01347916667,1.821784167e-06
0.0135,2.012524874e-06
0.01352083333,2.02730962e-06
0.01354166667,2.156924438e-06
0.0135625,2.299145763e-06
0.01358333333,2.653384854e-06
0.01360416667,2.912520813e-06
0.013625,3.253209343e-06
0.01364583333,3.432159019e-06
0.01366666667,3.726682053e-06
0.0136875,3.903854122e-06
0.01370833333,4.243608146e-06
0.01372916667,4.211410214e-06
0.01375,4.363346306e-06
0.01377083333,4.684794021e-06
0.01379166667,5.118150966e-06
0.0138125,5.346142643e-06
0.01383333333,5.378683454e-06
0.01385416667,5.341524229e-06
0.013875,5.513575616e-06
0.01389583333,5.429441444e-06
0.01391666667,5.448476713e-06
0.0139375,5.700183465e-06
0.01395833333,6.125579148e-06
0.01397916667,6.369873972e-06
0.014,6.577704426e-06
0.01402083333,6.352001947e-06
0.01404166667,6.290135389e-06
0.0140625,5.984495601e-06
0.01408333333,5.967986908e-06
0.01410416667,5.803126442e-06
0.014125,5.919470823e-06
0.01414583333,6.074101293e-06
0.01416666667,6.128989298e-06
0.0141875,6.157709777e-06
0.01420833333,6.043331723e-06
0.01422916667,5.78123263e-06
0.01425,5.575207069e-06
0.01427083333,5.323452569e-06
0.01429166667,5.397349014e-06
0.0143125,5.50447885e-06
0.01433333333,5.667001915e-06
0.01435416667,5.351787422e-06
0.014375,4.664277185e-06
0.01439583333,4.33623336e-06
0.01441666667,4.258133231e-06
0.0144375,3.934338565e-06
0.01445833333,3.899115654e-06
0.01447916667,3.803663731e-06
0.0145,3.974696483e-06
0.01452083333,3.617434913e-06
0.01454166667,3.288349262e-06
0.0145625,2.55821169e-06
0.01458333333,1.978284672e-06
0.01460416667,1.512124982e-06
0.014625,1.420000103e-06
0.01464583333,1.226151426e-06
0.01466666667,1.231670694e-06
0.0146875,9.327673638e-07
0.01470833333,5.253498898e-07
0.01472916667,-1.263174454e-09
0.01475,-1.549865374e-07
0.01477083333,-5.022483833e-07
0.01479166667,-8.174329764e-07
0.0148125,-7.987729305e-07
0.01483333333,-8.120126722e-07
0.01485416667,-1.326236429e-06
0.014875,-1.893070817e-06
0.01489583333,-1.976766271e-06
0.01491666667,-2.104515715e-06
0.0149375,-2.436320301e-06
0.01495833333,-2.591530119e-06
0.01497916667,-2.905857855e-06
0.015,-2.610755928e-06
0.01502083333,-2.679830686e-06
0.01504166667,-2.682233799e-06
0.0150625,-2.905220754e-06
0.01508333333,-3.3903043e-06
0.01510416667,-4.313116733e-06
0.015125,-4.756539965e-06
0.01514583333,-4.782799351e-06
0.01516666667,-4.383729447e-06
0.0151875,-4.253574389e-06
0.01520833333,-4.416904176e-06
0.01522916667,-4.889783668e-06
0.01525,-4.693794835e-06
0.01527083333,-4.874116257e-06
0.01529166667,-4.731355602e-06
0.0153125,-4.731411536e-06
0.01533333333,-4.963611445e-06
0.01535416667,-5.417070952e-06
0.015375,-5.01656632e-06
0.01539583333,-5.277080618e-06
0.01541666667,-5.121567028e-06
0.0154375,-4.916929811e-06
0.01545833333,-5.055953352e-06
0.01547916667,-5.324485755e-06
0.0155,-5.482652341e-06
0.01552083333,-5.02210878e-06
0.01554166667,-4.700109457e-06
0.0155625,-3.9246288e-06
0.01558333333,-3.608011866e-06
0.01560416667,-4.221260042e-06
0.015625,-4.43457111e-06
0.01564583333,-4.957482361e-06
0.01566666667,-4.608350082e-06
0.0156875,-3.916574769e-06
0.01570833333,-3.461518872e-06
0.01572916667,-3.461189635e-06
0.01575,-3.584430942e-06
0.01577083333,-3.558342087e-06
0.01579166667,-2.979111514e-06
0.0158125,-2.460450105e-06
0.01583333333,-2.111884896e-06
0.01585416667,-1.915483153e-06
0.015875,-1.891755119e-06
0.01589583333,-1.885684014e-06
0.01591666667,-1.445192879e-06
0.0159375,-9.641017868e-07
0.01595833333,-2.809657076e-07
0.01597916667,-5.417745115e-07
0.016,-3.600283662e-07
0.01602083333,-2.798902869e-07
0.01604166667,1.342896212e-07
0.0160625,1.340904419e-07
0.01608333333,5.690446869e-07
0.01610416667,9.956585245e-07
0.016125,1.540874337e-06
0.01614583333,1.734189141e-06
0.01616666667,1.741823894e-06
0.0161875,2.043739642e-06
0.01620833333,2.229414122e-06
0.01622916667,2.037234253e-06
0.01625,2.159537189e-06
0.01627083333,2.04695948e-06
0.01629166667,2.634647217e-06
0.0163125,3.130660389e-06
0.01633333333,3.339258683e-06
0.01635416667,3.015296443e-06
0.016375,2.755269179e-06
0.01639583333,2.438538786e-06
0.01641666667,2.837057082e-06
0.0164375,2.896945034e-06
0.01645833333,3.075495897e-06
0.01647916667,3.972391823e-06
0.0165,4.150442692e-06
0.01652083333,3.681097269e-06
0.01654166667,3.343314575e-06
0.0165625,3.047728569e-06
0.01658333333,3.474658797e-06
0.01660416667,3.169229103e-06
0.016625,3.650462077e-06
0.01664583333,3.362729558e-06
0.01666666667,3.820752227e-06
0.0166875,3.862749054e-06
0.01670833333,3.532976507e-06
0.01672916667,3.605351139e-06
0.01675,2.999101753e-06
0.01677083333,2.179445119e-06
0.01679166667,2.829888444e-06
0.0168125,2.99883277e-06
0.01683333333,2.998777063e-06
0.01685416667,2.973227311e-06
0.016875,2.180964657e-06
0.01689583333,1.022068773e-06
0.01691666667,7.736045973e-07
0.0169375,3.082152489e-07
0.01695833333,7.148835266e-07
0.01697916667,1.127859719e-06
0.017,1.729472388e-06
0.01702083333,1.260728595e-06
0.01704166667,7.369096693e-07
0.0170625,2.985559036e-07
0.01708333333,-3.367250656e-07
0.01710416667,-7.723201634e-07
0.017125,-1.26258044e-06
0.01714583333,-1.76225376e-06
0.01716666667,-1.756575784e-06
0.0171875,-1.815110863e-06
0.01720833333,-1.672552344e-06
0.01722916667,-2.190688974e-06
0.01725,-2.555751053e-06
0.01727083333,-3.374561174e-06
0.01729166667,-3.846294021e-06
0.0173125,-3.37643587e-06
0.01733333333,-2.604615247e-06
0.01735416667,-2.617328391e-06
0.017375,-3.34084757e-06
0.01739583333,-4.438003089e-06
0.01741666667,-5.758159205e-06
0.0174375,-7.059774362e-06
0.01745833333,-7.011060006e-06
0.01747916667,-6.855460015e-06
0.0175,-6.746561667e-06
0.01752083333,-5.409501227e-06
0.01754166667,-5.226801477e-06
0.0175625,-5.978487479e-06
0.01758333333,-6.405980457e-06
0.01760416667,-6.470640528e-06
0.017625,-7.099312825e-06
0.01764583333,-6.890165423e-06
0.01766666667,-6.483696779e-06
0.0176875,-6.473951089e-06
0.01770833333,-6.560238944e-06
0.01772916667,-6.92221829e-06
0.01775,-7.400428331e-06
0.01777083333,-8.090347364e-06
0.01779166667,-7.142528375e-06
0.0178125,-6.629036761e-06
0.01783333333,-5.852202321e-06
0.01785416667,-5.978035006e-06
0.017875,-5.143014278e-06
0.01789583333,-5.669838174e-06
0.01791666667,-5.303621947e-06
0.0179375,-5.605173101e-06
0.01795833333,-5.491170214e-06
0.01797916667,-5.969023732e-06
0.018,-6.108627986e-06
0.01802083333,-5.405157026e-06
0.01804166667,-4.53825669e-06
0.0180625,-4.917061688e-06
0.01808333333,-4.639121016e-06
0.01810416667,-4.157423973e-06
0.018125,-3.166590432e-06
0.01814583333,-2.961487326e-06
0.01816666667,-3.328391813e-06
0.0181875,-3.26550753e-06
0.01820833333,-2.72124862e-06
0.01822916667,-2.442021469e-06
0.01825,-2.247724979e-06
0.01827083333,-1.091149215e-06
0.01829166667,-1.087033638e-06
0.0183125,-7.814190326e-07
0.01833333333,-6.276116551e-07
0.01835416667,-4.957522606e-07
0.018375,2.311784471e-07
0.01839583333,4.859579121e-07
0.01841666667,8.421741882e-07
0.0184375,1.727771405e-06
0.01845833333,3.157163519e-06
0.01847916667,3.838281373e-06
0.0185,3.197505293e-06
0.01852083333,2.881033197e-06
0.01854166667,3.3003721e-06
0.0185625,4.138241366e-06
0.01858333333,4.90213597e-06
0.01860416667,6.038336323e-06
0.018625,6.374120403e-06
0.01864583333,6.013188795e-06
0.01866666667,5.764931757e-06
0.0186875,5.114493433e-06
0.01870833333,6.03231274e-06
0.01872916667,5.541431619e-06
0.01875,6.83078315e-06
0.01877083333,7.690508028e-06
0.01879166667,8.343688023e-06
0.0188125,8.429951777e-06
0.01883333333,8.296612577e-06
0.01885416667,8.110626368e-06
0.018875,8.249548046e-06
0.01889583333,8.611256817e-06
0.01891666667,8.768702173e-06
0.0189375,8.902036825e-06
0.01895833333,9.529168892e-06
0.01897916667,9.384722944e-06
0.019,9.216702892e-06
0.01902083333,8.438899386e-06
0.01904166667,8.369553143e-06
0.0190625,8.193916074e-06
0.01908333333,8.567692021e-06
0.01910416667,8.893427548e-06
0.019125,9.717260582e-06
0.01914583333,9.434485946e-06
0.01916666667,8.734903531e-06
0.0191875,8.128402442e-06
0.01920833333,7.397753052e-06
0.01922916667,6.256554116e-06
0.01925,6.809506885e-06
0.01927083333,7.712510524e-06
0.01929166667,9.07820413e-06
0.0193125,9.66371681e-06
0.01933333333,8.629154763e-06
0.01935416667,6.753291927e-06
0.019375,5.897595656e-06
0.01939583333,5.143986073e-06
0.01941666667,5.666333891e-06
0.0194375,6.804775694e-06
0.01945833333,7.563078725e-06
0.01947916667,7.277390068e-06
0.0195,5.71290866e-06
0.01952083333,4.281508154e-06
0.01954166667,4.182606972e-06
0.0195625,4.290975994e-06
0.01958333333,4.521016308e-06
0.01960416667,4.246676326e-06
0.019625,4.372422154e-06
0.01964583333,3.917784397e-06
0.01966666667,2.848100394e-06
0.0196875,2.510019613e-06
0.01970833333,1.184124812e-06
0.01972916667,-1.928119673e-07
0.01975,-4.828718829e-07
0.01977083333,-9.018204992e-07
0.01979166667,7.565874967e-07
0.0198125,1.247052523e-06
0.01983333333,6.739519449e-07
0.01985416667,-5.800079634e-07
0.019875,-2.783478521e-06
0.01989583333,-2.753837634e-06
0.01991666667,-2.9470973e-06
0.0199375,-2.964251962e-06
0.01995833333,-2.787589438e-06
0.01997916667,-2.292875251e-06
0.02,-5.046383649e-06
0.02002083333,-5.737857464e-06
0.02004166667,-6.432276678e-06
0.0200625,-5.856264579e-06
0.02008333333,-5.554279142e-06
0.02010416667,-4.768336566e-06
0.020125,-4.573778824e-06
0.02014583333,-5.472557859e-06
0.02016666667,-5.154633982e-06
0.0201875,-5.611877896e-06
0.02020833333,-6.203986231e-06
0.02022916667,-6.678605132e-06
0.02025,-7.142528375e-06
0.02027083333,-7.227912647e-06
0.02029166667,-6.441138794e-06
0.0203125,-5.619397598e-06
0.02033333333,-4.880156666e-06
0.02035416667,-6.209210369e-06
0.020375,-6.815216238e-06
0.02039583333,-7.511649983e-06
0.02041666667,-6.308052889e-06
0.0204375,-6.338852472e-06
0.02045833333,-7.019069926e-06
0.02047916667,-7.422725503e-06
0.0205,-8.185901606e-06
0.02052083333,-8.027201147e-06
0.02054166667,-8.320282177e-06
0.0205625,-7.751206795e-06
0.02058333333,-7.073211236e-06
0.02060416667,-6.767284049e-06
0.020625,-7.257563084e-06
0.02064583333,-7.094346984e-06
0.02066666667,-6.386002042e-06
0.0206875,-6.250412298e-06
0.02070833333,-6.117875273e-06
0.02072916667,-6.888582448e-06
0.02075,-8.055431863e-06
0.02077083333,-8.079948202e-06
0.02079166667,-7.696355169e-06
0.0208125,-6.007589036e-06
0.02083333333,-5.800850886e-06
0.02085416667,-6.399743143e-06
0.020875,-6.398392088e-06
0.02089583333,-6.82311429e-06
0.02091666667,-5.714282906e-06
0.0209375,-4.632071978e-06
0.02095833333,-5.455143764e-06
0.02097916667,-6.270334779e-06
0.021,-6.875606687e-06
0.02102083333,-7.713890227e-06
0.02104166667,-6.668377409e-06
0.0210625,-6.693503565e-06
0.02108333333,-6.659052815e-06
0.02110416667,-6.648067938e-06
0.021125,-7.46398473e-06
0.02114583333,-7.619908502e-06
0.02116666667,-7.742744856e-06
0.0211875,-5.350151696e-06
0.02120833333,-3.671706509e-06
0.02122916667,-4.772593456e-06
0.02125,-6.708453384e-06
0.02127083333,-8.922817869e-06
0.02129166667,-9.248905371e-06
0.0213125,-7.987189747e-06
0.02133333333,-8.083986359e-06
0.02135416667,-9.02703232e-06
0.021375,-1.040005009e-05
0.02139583333,-1.210973187e-05
0.02141666667,-1.229530517e-05
0.0214375,-1.097001496e-05
0.02145833333,-9.655225767e-06
0.02147916667,-9.509922165e-06
0.0215,-1.214125223e-05
0.02152083333,-1.455501115e-05
0.02154166667,-1.551259993e-05
0.0215625,-1.497014091e-05
0.02158333333,-1.427650386e-05
0.02160416667,-1.466948015e-05
0.021625,-1.603314377e-05
0.02164583333,-1.89004495e-05
0.02166666667,-1.901075302e-05
0.0216875,-1.863775651e-05
0.02170833333,-1.721680019e-05
0.02172916667,-1.79682811e-05
0.02175,-1.9359004e-05
0.02177083333,-2.072187817e-05
0.02179166667,-2.27114142e-05
0.0218125,-2.296111779e-05
0.02183333333,-2.200895869e-05
0.02185416667,-2.220240094e-05
0.021875,-2.325647438e-05
0.02189583333,-2.719326403e-05
0.02191666667,-3.009449028e-05
0.0219375,-2.85967526e-05
0.02195833333,-2.66438019e-05
0.02197916667,-2.458139352e-05
0.022,-2.398067227e-05
0.02202083333,-2.799299546e-05
0.02204166667,-3.107597513e-05
0.0220625,-3.300495882e-05
0.02208333333,-3.471190212e-05
0.02210416667,-3.374629887e-05
0.022125,-3.369478873e-05
0.02214583333,-3.650982762e-05
0.02216666667,-3.800878767e-05
0.0221875,-3.945190474e-05
0.02220833333,-3.851322617e-05
0.02222916667,-3.874703543e-05
0.02225,-4.09267559e-05
0.02227083333,-4.350922973e-05
0.02229166667,-4.550463564e-05
0.0223125,-4.599996828e-05
0.02233333333,-4.588731099e-05
0.02235416667,-4.486484249e-05
0.022375,-4.700800127e-05
0.02239583333,-5.214192788e-05
0.02241666667,-5.72195022e-05
0.0224375,-6.035980186e-05
0.02245833333,-6.013516395e-05
0.02247916667,-5.65146147e-05
0.0225,-5.271802729e-05
0.02252083333,-5.278459139e-05
0.02254166667,-5.44399627e-05
0.0225625,-6.073783152e-05
0.02258333333,-6.547651719e-05
0.02260416667,-6.632794975e-05
0.022625,-6.50482325e-05
0.02264583333,-6.369680341e-05
0.02266666667,-6.514363486e-05
0.0226875,-6.902054156e-05
0.02270833333,-7.099167124e-05
0.02272916667,-7.285703759e-05
0.02275,-7.344753249e-05
0.02277083333,-7.324945182e-05
0.02279166667,-7.393480337e-05
0.0228125,-7.363835903e-05
0.02283333333,-7.50059553e-05
0.02285416667,-7.544465188e-05
0.022875,-7.457587344e-05
0.02289583333,-7.72355852e-05
0.02291666667,-8.061415429e-05
0.0229375,-8.55678154e-05
0.02295833333,-8.900126704e-05
0.02297916667,-8.94212717e-05
0.023,-8.715762669e-05
0.02302083333,-8.457709191e-05
0.02304166667,-8.46672483e-05
0.0230625,-8.754050941e-05
0.02308333333,-9.339790267e-05
0.02310416667,-9.800792759e-05
0.023125,-9.756011423e-05
0.02314583333,-9.717655485e-05
0.02316666667,-9.625395614e-05
0.0231875,-9.645696991e-05
0.02320833333,-0.0001021838107
0.02322916667,-0.0001055523098
0.02325,-0.0001076153421
0.02327083333,-0.0001094178879
0.02329166667,-0.0001093012688
0.0233125,-0.0001087147102
0.02333333333,-0.0001102650931
0.02335416667,-0.000111967267
0.023375,-0.000113003196
0.02339583333,-0.0001155832142
0.02341666667,-0.0001155988139
0.0234375,-0.0001165777066
0.02345833333,-0.0001217669997
0.02347916667,-0.0001247682521
0.0235,-0.0001260976132
0.02352083333,-0.0001257958065
0.02354166667,-0.0001233395305
0.0235625,-0.0001230951893
0.02358333333,-0.0001252488873
0.02360416667,-0.0001290553919
0.023625,-0.000134110669
0.02364583333,-0.0001369538804
0.02366666667,-0.0001372915867
0.0236875,-0.0001368488593
0.02370833333,-0.0001357588771
0.02372916667,-0.0001376308064
0.02375,-0.0001387998927
0.02377083333,-0.0001432310819
0.02379166667,-0.0001447405957
0.0238125,-0.000147682571
0.02383333333,-0.0001470133138
0.02385416667,-0.0001477192563
0.023875,-0.0001491370203
0.02389583333,-0.0001511922164
0.02391666667,-0.0001523845858
0.0239375,-0.0001534912444
0.02395833333,-0.0001579406962
0.02397916667,-0.0001620375551
0.024,-0.0001655632514
0.02402083333,-0.0001671096397
0.02404166667,-0.0001668258337
0.0240625,-0.0001654160733
0.02408333333,-0.0001661223941
0.02410416667,-0.000168630897
0.024125,-0.0001739476575
0.02414583333,-0.000178305927
0.02416666667,-0.0001811652328
0.0241875,-0.0001844883373
0.02420833333,-0.0001864334918
0.02422916667,-0.00018794676
0.02425,-0.0001896831527
0.02427083333,-0.0001920163195
0.02429166667,-0.0001954021136
0.0243125,-0.0001988627919
0.02433333333,-0.000201899049
0.02435416667,-0.0002045168512
0.024375,-0.0002081797575
0.02439583333,-0.0002115366369
0.02441666667,-0.0002133553935
0.0244375,-0.0002156480332
0.02445833333,-0.0002204048797
0.02447916667,-0.0002250656107
0.0245,-0.0002298459149
0.02452083333,-0.0002326817339
0.02454166667,-0.000234283405
0.0245625,-0.0002350308496
0.02458333333,-0.0002346270776
0.02460416667,-0.0002370216534
0.024625,-0.0002416882489
0.02464583333,-0.0002463879064
0.02466666667,-0.0002514165826
0.0246875,-0.0002552912338
0.02470833333,-0.0002601045126
0.02472916667,-0.0002616674174
0.02475,-0.000262643618
0.02477083333,-0.0002646714565
0.02479166667,-0.0002672029077
0.0248125,-0.0002690210531
0.02483333333,-0.0002710449917
0.02485416667,-0.0002742272627
0.024875,-0.0002765326935
0.02489583333,-0.0002781513613
0.02491666667,-0.0002793507301
0.0249375,-0.0002821710659
0.02495833333,-0.0002875196515
0.02497916667,-0.0002960161073
0.025,-0.0003011355584
0.02502083333,-0.0003044770565
0.02504166667,-0.0003048290964
0.0250625,-0.0003024830949
0.02508333333,-0.0003034225374
0.02510416667,-0.0003060698509
0.025125,-0.0003107226803
0.02514583333,-0.0003152577556
0.02516666667,-0.000318790524
0.0251875,-0.0003202446678
0.02520833333,-0.0003230358707
0.02522916667,-0.0003264397674
0.02525,-0.0003306599683
0.02527083333,-0.0003346426238
0.02529166667,-0.0003394066589
0.0253125,-0.0003412083024
0.02533333333,-0.0003429840435
0.02535416667,-0.0003452498349
0.025375,-0.0003485872294
0.02539583333,-0.0003522793704
0.02541666667,-0.0003552814887
0.0254375,-0.0003560573386
0.02545833333,-0.0003586196981
0.02547916667,-0.0003645272518
0.0255,-0.0003690647718
0.02552083333,-0.0003741898399
0.02554166667,-0.0003763158456
0.0255625,-0.0003762494307
0.02558333333,-0.0003801317653
0.02560416667,-0.0003828605113
0.025625,-0.0003852382069
0.02564583333,-0.0003901797754
0.02566666667,-0.0003922964679
0.0256875,-0.0003935560235
0.02570833333,-0.0003962092742
0.02572916667,-0.0003989275428
0.02575,-0.000402467791
0.02577083333,-0.0004096646735
0.02579166667,-0.0004133804759
0.0258125,-0.0004137757351
0.02583333333,-0.0004161953984
0.02585416667,-0.0004198813695
0.025875,-0.0004224107543
0.02589583333,-0.0004284772731
0.02591666667,-0.0004333672696
0.0259375,-0.0004358484875
0.02595833333,-0.0004405837972
0.02597916667,-0.0004458932381
0.026,-0.0004501515941
0.02602083333,-0.0004578742664
0.02604166667,-0.000462568918
0.0260625,-0.0004648695758
0.02608333333,-0.00047010649
0.02610416667,-0.0004740639706
0.026125,-0.0004829879908
0.02614583333,-0.0004920173669
0.02616666667,-0.0004962268868
0.0261875,-0.0005001532263
0.02620833333,-0.0005044451682
0.02622916667,-0.0005078390823
0.02625,-0.0005159449647
0.02627083333,-0.000523014809
0.02629166667,-0.0005288760294
0.0263125,-0.0005306797684
0.02633333333,-0.000534703664
0.02635416667,-0.000539124303
0.026375,-0.0005445267889
0.02639583333,-0.0005503218854
0.02641666667,-0.000556189334
0.0264375,-0.0005587884225
0.02645833333,-0.0005647758953
0.02647916667,-0.0005682253977
0.0265,-0.0005758801126
0.02652083333,-0.0005832260358
0.02654166667,-0.0005864783889
0.0265625,-0.0005873522605
0.02658333333,-0.0005879530217
0.02660416667,-0.0005920453696
0.026625,-0.000600839965
0.02664583333,-0.0006111827097
0.02666666667,-0.0006184380036
0.0266875,-0.0006229888531
0.02670833333,-0.0006248698337
0.02672916667,-0.0006297393702
0.02675,-0.000637840305
0.02677083333,-0.0006504314952
0.02679166667,-0.0006604540977
0.0268125,-0.000666779466
0.02683333333,-0.0006674537435
0.02685416667,-0.0006674917531
0.026875,-0.0006735743955
0.02689583333,-0.0006863405579
0.02691666667,-0.0006959487218
0.0269375,-0.0007039745688
0.02695833333,-0.0007104293909
0.02697916667,-0.0007131947204
0.027,-0.0007188612944
0.02702083333,-0.0007305190084
0.02704166667,-0.0007401424809
0.0270625,-0.0007453010767
0.02708333333,-0.000749298837
0.02710416667,-0.0007499514613
0.027125,-0.0007563047111
0.02714583333,-0.0007673613727
0.02716666667,-0.0007753167301
0.0271875,-0.0007838287274
0.02720833333,-0.0007860503392
0.02722916667,-0.0007854182622
0.02725,-0.0007918662741
0.02727083333,-0.0008026342257
0.02729166667,-0.0008160240832
0.0273125,-0.0008229663945
0.02733333333,-0.0008245971403
0.02735416667,-0.0008223025943
0.027375,-0.0008248327649
0.02739583333,-0.0008328570402
0.02741666667,-0.0008460548706
0.0274375,-0.0008585731266
0.02745833333,-0.0008661235915
0.02747916667,-0.0008639342268
0.0275,-0.0008644293994
0.02752083333,-0.0008683169726
0.02754166667,-0.0008796387119
0.0275625,-0.0008929779287
0.02758333333,-0.0009031907539
0.02760416667,-0.0009066674393
0.027625,-0.0009083274053
0.02764583333,-0.0009123157943
0.02766666667,-0.000921461673
0.0276875,-0.0009369759937
0.02770833333,-0.0009519656305
0.02772916667,-0.0009597123717
0.02775,-0.0009642512887
0.02777083333,-0.0009704686818
0.02779166667,-0.0009789667092
0.0278125,-0.0009887244087
0.02783333333,-0.0009974520653
0.02785416667,-0.001001760247
0.027875,-0.001004543039
0.02789583333,-0.001013400382
0.02791666667,-0.001019016141
0.0279375,-0.00102659245
0.02795833333,-0.00103785214
0.02797916667,-0.001038850169
0.028,-0.00104033947
0.02802083333,-0.001048328239
0.02804166667,-0.001054510823
0.0280625,-0.001062032185
0.02808333333,-0.001071284409
0.02810416667,-0.001074857777
0.028125,-0.001079122419
0.02814583333,-0.001082440605
0.02816666667,-0.00108394667
0.0281875,-0.00109164149
0.02820833333,-0.001101193018
0.02822916667,-0.001109956531
0.02825,-0.001114338054
0.02827083333,-0.001119730878
0.02829166667,-0.001124173286
0.0283125,-0.001131379395
0.02833333333,-0.001141695771
0.02835416667,-0.001150905038
0.028375,-0.001164649846
0.02839583333,-0.001172711607
0.02841666667,-0.001175327692
0.0284375,-0.00118289853
0.02845833333,-0.001198206912
0.02847916667,-0.001208996051
0.0285,-0.001216732315
0.02852083333,-0.001225170097
0.02854166667,-0.001232036971
0.0285625,-0.001238816185
0.02858333333,-0.001241563121
0.02860416667,-0.001244730782
0.028625,-0.001252970775
0.02864583333,-0.001268720604
0.02866666667,-0.001277076895
0.0286875,-0.001287763473
0.02870833333,-0.001290143817
0.02872916667,-0.001283699181
0.02875,-0.001277548028
0.02877083333,-0.001287302119
0.02879166667,-0.001296201372
0.0288125,-0.001306270482
0.02883333333,-0.00131869188
0.02885416667,-0.001317669521
0.028875,-0.001311377622
0.02889583333,-0.001319704228
0.02891666667,-0.001323013683
0.0289375,-0.001335818553
0.02895833333,-0.001357887639
0.02897916667,-0.00136711041
0.029,-0.001368045341
0.02902083333,-0.001373919309
0.02904166667,-0.001373723033
0.0290625,-0.001381013775
0.02908333333,-0.001386549091
0.02910416667,-0.001394238439
0.029125,-0.001404711977
0.02914583333,-0.001425879658
0.02916666667,-0.001433302416
0.0291875,-0.001452375436
0.02920833333,-0.001464813831
0.02922916667,-0.001476137433
0.02925,-0.001478632563
0.02927083333,-0.001475417521
0.02929166667,-0.001487657311
0.0293125,-0.001497916412
0.02933333333,-0.001523614279
0.02935416667,-0.001535121002
0.029375,-0.001534240786
0.02939583333,-0.001547628315
0.02941666667,-0.001538246288
0.0294375,-0.001547946362
0.02945833333,-0.00156596431
0.02947916667,-0.00160626974
0.0295,-0.001623355434
0.02952083333,-0.001642370946
0.02954166667,-0.00162902032
0.0295625,-0.001622003503
0.02958333333,-0.00162827305
0.02960416667,-0.001622276613
0.029625,-0.001655272907
0.02964583333,-0.00167082285
0.02966666667,-0.001696693711
0.0296875,-0.001693163766
0.02970833333,-0.00168741995
0.02972916667,-0.001710190671
0.02975,-0.001718480838
0.02977083333,-0.001759474748
0.02979166667,-0.00175968057
0.0298125,-0.001773400465
0.02983333333,-0.001776201301
0.02985416667,-0.001754065161
0.029875,-0.001763828099
0.02989583333,-0.001826597145
0.02991666667,-0.001863915357
0.0299375,-0.001830875874
0.02995833333,-0.001749003306
0.02997916667,-0.001617792761
0.03,-0.002662674058
0.03002083333,-0.002533930587
0.03004166667,-0.00247381418
0.0300625,-0.002387245884
0.03008333333,-0.002452746965
0.03010416667,-0.002519060625
0.030125,-0.002509456826
0.03014583333,-0.002478481038
0.03016666667,-0.002474546898
0.0301875,-0.002491442254
0.03020833333,-0.002480453346
0.03022916667,-0.002500915667
0.03025,-0.002482048003
0.03027083333,-0.002521511167
0.03029166667,-0.002464985475
0.0303125,-0.002444338053
0.03033333333,-0.002474048175
0.03035416667,-0.002461889293
0.030375,-0.002457246883
0.03039583333,-0.002415503608
0.03041666667,-0.002407764783
0.0304375,-0.002402928658
0.03045833333,-0.002382096369
0.03047916667,-0.002346917521
0.0305,-0.002366722561
0.03052083333,-0.002405349631
0.03054166667,-0.002383825136
0.0305625,-0.002383630024
0.03058333333,-0.002331018914
0.03060416667,-0.002338089282
0.030625,-0.002295918763
0.03064583333,-0.002267341362
0.03066666667,-0.002274041064
0.0306875,-0.002273632912
0.03070833333,-0.00224768091
0.03072916667,-0.002217887901
0.03075,-0.002241753973
0.03077083333,-0.002204642631
0.03079166667,-0.002227217192
0.0308125,-0.00221501803
0.03083333333,-0.002188779647
0.03085416667,-0.002208888065
0.030875,-0.002209384227
0.03089583333,-0.002188590122
0.03091666667,-0.002149562584
0.0309375,-0.002183060627
0.03095833333,-0.002139805816
0.03097916667,-0.002146557905
0.031,-0.002115317155
0.03102083333,-0.002097030869
0.03104166667,-0.002137891948
0.0310625,-0.002103087492
0.03108333333,-0.002060994972
0.03110416667,-0.002043541754
0.031125,-0.00201368914
0.03114583333,-0.001989828888
0.03116666667,-0.001976979431
0.0311875,-0.001942717819
0.03120833333,-0.001948740217
0.03122916667,-0.001961333677
0.03125,-0.001899153227
0.03127083333,-0.001867922721
0.03129166667,-0.001876349445
0.0313125,-0.00186844205
0.03133333333,-0.001801581704
0.03135416667,-0.001833930612
0.031375,-0.001762217958
0.03139583333,-0.00174736511
0.03141666667,-0.001764637418
0.0314375,-0.001728112926
0.03145833333,-0.001677812077
0.03147916667,-0.001697141211
0.0315,-0.001640612143
0.03152083333,-0.001637026318
0.03154166667,-0.001615020796
0.0315625,-0.001578037045
0.03158333333,-0.001559831435
0.03160416667,-0.001529791974
0.031625,-0.001526908134
0.03164583333,-0.001533256145
0.03166666667,-0.001520018675
0.0316875,-0.001492576324
0.03170833333,-0.00149125373
0.03172916667,-0.001477665035
0.03175,-0.001493902411
0.03177083333,-0.001530199661
0.03179166667,-0.001532924594
0.0318125,-0.001573570305
0.03183333333,-0.00156753941
0.03185416667,-0.00157266343
0.031875,-0.001547435531
0.03189583333,-0.001558213262
0.03191666667,-0.001571485889
0.0319375,-0.001559726661
0.03195833333,-0.001565929502
0.03197916667,-0.001497940393
0.032,-0.001485990826
0.03202083333,-0.001480421983
0.03204166667,-0.001456909347
0.0320625,-0.001444557332
0.03208333333,-0.001400734647
0.03210416667,-0.001394899562
0.032125,-0.001377013046
0.03214583333,-0.001311312662
0.03216666667,-0.001293449197
0.0321875,-0.001251344103
0.03220833333,-0.001220806618
0.03222916667,-0.001211186405
0.03225,-0.001166022848
0.03227083333,-0.001169422641
0.03229166667,-0.001124232425
0.0323125,-0.001106851269
0.03233333333,-0.001074073021
0.03235416667,-0.001064204611
0.032375,-0.001056110603
0.03239583333,-0.0009397483664
0.03241666667,-0.0008718428435
0.0324375,-0.0008731020498
0.03245833333,-0.0008741164347
0.03247916667,-0.0007798781735
0.0325,-0.0007543234387
0.03252083333,-0.0006944711204
0.03254166667,-0.0006584013463
0.0325625,-0.0006743993727
0.03258333333,-0.0006701119128
0.03260416667,-0.0006767558516
0.032625,-0.0006168593536
0.03264583333,-0.0005756727769
0.03266666667,-0.0005083268043
0.0326875,-0.0004948491114
0.03270833333,-0.0004754775437
0.03272916667,-0.0004336461425
0.03275,-0.000410179724
0.03277083333,-0.0003351543855
0.03279166667,-0.0002887666342
0.0328125,-0.0001940132352
0.03283333333,-0.0001211485651
0.03285416667,-8.849990263e-05
0.032875,-2.84583366e-05
0.03289583333,1.552209142e-05
0.03291666667,9.805131413e-05
0.0329375,0.0001369956008
0.03295833333,0.0001845518855
0.03297916667,0.0002281010529
0.033,0.0002444238635
0.03302083333,0.0003217097837
0.03304166667,0.0003949427337
0.0330625,0.0004726981861
0.03308333333,0.0005252205883
0.03310416667,0.0006009161007
0.033125,0.0006606325042
0.03314583333,0.000731011387
0.03316666667,0.0007963548414
0.0331875,0.0008604141767
0.03320833333,0.000931273622
0.03322916667,0.0009688108694
0.03325,0.001005007303
0.03327083333,0.001035559108
0.03329166667,0.001111683552
0.0333125,0.001164069865
0.03333333333,0.001192806056
0.03335416667,0.001246151514
0.033375,0.001340323593
0.03339583333,0.001384547097
0.03341666667,0.00146870641
0.0334375,0.00148654473
0.03345833333,0.001566439401
0.03347916667,0.001641656621
0.0335,0.001711425022
0.03352083333,0.001797486912
0.03354166667,0.001852912595
0.0335625,0.001913991291
0.03358333333,0.00198971713
0.03360416667,0.002062383341
0.033625,0.002103631152
0.03364583333,0.002128358465
0.03366666667,0.002178119496
0.0336875,0.002198889852
0.03370833333,0.002300640335
0.03372916667,0.002349219751
0.03375,0.002393106231
0.03377083333,0.0024697755
0.03379166667,0.002534508705
0.0338125,0.002659095451
0.03383333333,0.002689732471
0.03385416667,0.002706426196
0.033875,0.002762236167
0.03389583333,0.002818497363
0.03391666667,0.002907827264
0.0339375,0.002982394071
0.03395833333,0.003092692234
0.03397916667,0.003144077258
0.034,0.003230102127
0.03402083333,0.003256023396
0.03404166667,0.003315484617
0.0340625,0.003360372502
0.03408333333,0.003393062158
0.03410416667,0.003406652017
0.034125,0.003448819509
0.03414583333,0.003491573501
0.03416666667,0.003526399145
0.0341875,0.003624838311
0.03420833333,0.003680996364
0.03422916667,0.00370143028
0.03425,0.003774801036
0.03427083333,0.003816735465
0.03429166667,0.003817135934
0.0343125,0.003866788
0.03433333333,0.003889660351
0.03435416667,0.003895904403
0.034375,0.003939558752
0.03439583333,0.004015110899
0.03441666667,0.004058446269
0.0344375,0.004078146536
0.03445833333,0.004147205036
0.03447916667,0.00416335091
0.0345,0.004168991931
0.03452083333,0.004224017728
0.03454166667,0.004233458545
0.0345625,0.004240328446
0.03458333333,0.004267144483
0.03460416667,0.004238759167
0.034625,0.004250275437
0.03464583333,0.004306135233
0.03466666667,0.004352161195
0.0346875,0.004387311637
0.03470833333,0.004389911424
0.03472916667,0.004406424705
0.03475,0.004441438243
0.03477083333,0.004516891669
0.03479166667,0.004579097033
0.0348125,0.004565529991
0.03483333333,0.004656211473
0.03485416667,0.004705437459
0.034875,0.004754440393
0.03489583333,0.004808761179
0.03491666667,0.004902630579
0.0349375,0.004974036012
0.03495833333,0.004992433824
0.03497916667,0.005077131093
0.035,0.005160771776
0.03502083333,0.005208075512
0.03504166667,0.0052666259
0.0350625,0.005287448876
0.03508333333,0.00532236509
0.03510416667,0.005373915657
0.035125,0.005362606607
0.03514583333,0.005392716732
0.03516666667,0.005449019372
0.0351875,0.005490563344
0.03520833333,0.005498437211
0.03522916667,0.005615974776
0.03525,0.005673679989
0.03527083333,0.005746461917
0.03529166667,0.005802839063
0.0353125,0.005793745164
0.03533333333,0.005883328617
0.03535416667,0.005871436559
0.035375,0.005905858241
0.03539583333,0.005952691659
0.03541666667,0.005981849041
0.0354375,0.006009069737
0.03545833333,0.006036294624
0.03547916667,0.006049943622
0.0355,0.006095360499
0.03552083333,0.006097809877
0.03554166667,0.006055725273
0.0355625,0.006039056461
0.03558333333,0.005996773951
0.03560416667,0.005982123315
0.035625,0.005891478155
0.03564583333,0.005840040278
0.03566666667,0.005842783023
0.0356875,0.005871857051
0.03570833333,0.005829097703
0.03572916667,0.005826677196
0.03575,0.005817142315
0.03577083333,0.005789200775
0.03579166667,0.005853454582
0.0358125,0.005852457602
0.03583333333,0.005921060219
0.03585416667,0.006028752308
0.035875,0.006093496457
0.03589583333,0.006175977178
0.03591666667,0.006218702532
0.0359375,0.006328139454
0.03595833333,0.006332125049
0.03597916667,0.006350345444
0.036,0.006339961197
0.03602083333,0.006315476261
0.03604166667,0.006350645795
0.0360625,0.006360599771
0.03608333333,0.006445955951
0.03610416667,0.006527608726
0.036125,0.006548813544
0.03614583333,0.006614441983
0.03616666667,0.006683647167
0.0361875,0.006748711225
0.03620833333,0.006774964277
0.03622916667,0.006812247913
0.03625,0.006871855818
0.03627083333,0.006934791803
0.03629166667,0.006969162263
0.0363125,0.007016404532
0.03633333333,0.007037616335
0.03635416667,0.007024646737
0.036375,0.007059296127
0.03639583333,0.007020204794
0.03641666667,0.007041072473
0.0364375,0.007028921042
0.03645833333,0.007034654729
0.03647916667,0.007092005573
0.0365,0.007091622334
0.03652083333,0.007105038967
0.03654166667,0.00713187689
0.0365625,0.007175236009
0.03658333333,0.007228222676
0.03660416667,0.007302693091
0.036625,0.007438397966
0.03664583333,0.00752307754
0.03666666667,0.007595656905
0.0366875,0.007673196495
0.03670833333,0.007751313969
0.03672916667,0.007812387776
0.03675,0.007856869139
0.03677083333,0.008008988574
0.03679166667,0.008070268668
0.0368125,0.008156302385
0.03683333333,0.00822606124
0.03685416667,0.008220964111
0.036875,0.008233834989
0.03689583333,0.008300078101
0.03691666667,0.008337559178
0.0369375,0.008361347951
0.03695833333,0.008388238959
0.03697916667,0.008371234871
0.037,0.008392574266
0.03702083333,0.008422881365
0.03704166667,0.008495518006
0.0370625,0.008482154459
0.03708333333,0.008484011516
0.03710416667,0.008564352058
0.037125,0.008536509238
0.03714583333,0.008589007892
0.03716666667,0.008657052182
0.0371875,0.008792021312
0.03720833333,0.008888571523
0.03722916667,0.008919358253
0.03725,0.009064229205
0.03727083333,0.009163517505
0.03729166667,0.009219490923
0.0373125,0.009304147214
0.03733333333,0.009330542758
0.03735416667,0.009343144484
0.037375,0.009359348565
0.03739583333,0.009325333871
0.03741666667,0.009277171455
0.0374375,0.009229663759
0.03745833333,0.009206694551
0.03747916667,0.009152294137
0.0375,0.009131936356
0.03752083333,0.009060865268
0.03754166667,0.00900132861
0.0375625,0.009068412706
0.03758333333,0.009010090493
0.03760416667,0.009078822099
0.037625,0.00917725265
0.03764583333,0.009276395664
0.03766666667,0.009384930134
0.0376875,0.009482171386
0.03770833333,0.009575361386
0.03772916667,0.009704227559
0.03775,0.009701090865
0.03777083333,0.009793731384
0.03779166667,0.00988846831
0.0378125,0.009936940856
0.03783333333,0.0100528514
0.03785416667,0.01013454422
0.037875,0.01017595269
0.03789583333,0.01022759918
0.03791666667,0.01033041067
0.0379375,0.01035219152
0.03795833333,0.01040865388
0.03797916667,0.01050146949
0.038,0.01051900815
0.03802083333,0.01055009011
0.03804166667,0.01056312211
0.0380625,0.01059607044
0.03808333333,0.01063753478
0.03810416667,0.01076266915
0.038125,0.01084476989
0.03814583333,0.0110101467
0.03816666667,0.01108800992
0.0381875,0.01107717864
0.03820833333,0.0111912135
0.03822916667,0.01128808502
0.03825,0.01139065716
0.03827083333,0.01132926811
0.03829166667,0.01137414016
0.0383125,0.01141591836
0.03833333333,0.01147451345
0.03835416667,0.01155518368
0.038375,0.01161094289
0.03839583333,0.01169851609
0.03841666667,0.01178930514
0.0384375,0.01185994875
0.03845833333,0.01203235984
0.03847916667,0.01211906038
0.0385,0.01225945633
0.03852083333,0.01236358564
0.03854166667,0.01243737061
0.0385625,0.01249840111
0.03858333333,0.01250780188
0.03860416667,0.01255072467
0.038625,0.01254418306
0.03864583333,0.01261954103
0.03866666667,0.01267548837
0.0386875,0.01269857865
0.03870833333,0.01270404365
0.03872916667,0.01274597924
0.03875,0.01280895248
0.03877083333,0.01288798079
0.03879166667,0.01294608507
0.0388125,0.0130569106
0.03883333333,0.01303917542
0.03885416667,0.01309434138
0.038875,0.01314093731
0.03889583333,0.01317601465
0.03891666667,0.01315309852
0.0389375,0.01302288286
0.03895833333,0.01292694267
0.03897916667,0.0128821563
0.039,0.01282477845
0.03902083333,0.01276504621
0.03904166667,0.01270511933
0.0390625,0.01273110509
0.03908333333,0.01280841418
0.03910416667,0.01283489354
0.039125,0.01298897807
0.03914583333,0.01307336241
0.03916666667,0.01320935413
0.0391875,0.01326052193
0.03920833333,0.01324007567
0.03922916667,0.01332382392
0.03925,0.01332412567
0.03927083333,0.0133660119
0.03929166667,0.01340335328
0.0393125,0.01339093596
0.03933333333,0.01332726236
0.03935416667,0.01334948745
0.039375,0.01330046076
0.03939583333,0.01323447563
0.03941666667,0.01325718593
0.0394375,0.01331823505
0.03945833333,0.01328642108
0.03947916667,0.01323456503
0.0395,0.01318960544
0.03952083333,0.01322279125
0.03954166667,0.01318279095
0.0395625,0.01309023332
0.03958333333,0.01302907243
0.03960416667,0.01300299168
0.039625,0.0128830336
0.03964583333,0.01287285332
0.03966666667,0.01284527592
0.0396875,0.0128356507
0.03970833333,0.01278326474
0.03972916667,0.0127061028
0.03975,0.01270520967
0.03977083333,0.01271834224
0.03979166667,0.01282509044
0.0398125,0.0128368875
0.03983333333,0.01286625862
0.03985416667,0.01290879305
0.039875,0.01295378804
0.03989583333,0.01305538695
0.03991666667,0.01315873023
0.0399375,0.01320540346
0.03995833333,0.01327367872
0.03997916667,0.01331982762
0.04,0.01336136181
0.04002083333,0.01334244478
0.04004166667,0.01335653104
0.0400625,0.01337111555
0.04008333333,0.01327633299
0.04010416667,0.01332503185
0.040125,0.01338928565
0.04014583333,0.01342658233
0.04016666667,0.01341919694
0.0401875,0.01347154565
0.04020833333,0.01334672794
0.04022916667,0.01341944002
0.04025,0.0133936815
0.04027083333,0.01320739556
0.04029166667,0.01316160988
0.0403125,0.01310293097
0.04033333333,0.01297817007
0.04035416667,0.0128589524
0.040375,0.01275950018
0.04039583333,0.01266333088
0.04041666667,0.01259700861
0.0404375,0.01260310505
0.04045833333,0.01250194293
0.04047916667,0.01249285322
0.0405,0.01246239711
0.04052083333,0.01230164897
0.04054166667,0.01217355952
0.0405625,0.01214613579
0.04058333333,0.01211324614
0.04060416667,0.01209674403
0.040625,0.01196826994
0.04064583333,0.01196734607
0.04066666667,0.01193181518
0.0406875,0.0118214665
0.04070833333,0.01185807399
0.04072916667,0.01176671498
0.04075,0.01171639003
0.04077083333,0.011696239
0.04079166667,0.01161335502
0.0408125,0.01158309821
0.04083333333,0.0115875937
0.04085416667,0.01146012545
0.040875,0.01131081674
0.04089583333,0.01121421624
0.04091666667,0.01103052404
0.0409375,0.01094323024
0.04095833333,0.01085510198
0.04097916667,0.01073228568
0.041,0.01056489348
0.04102083333,0.01046311483
0.04104166667,0.01038357057
0.0410625,0.01032109093
0.04108333333,0.01007463504
0.04110416667,0.009969230741
0.041125,0.009846563451
0.04114583333,0.009628841653
0.04116666667,0.009539375082
0.0411875,0.009332869202
0.04120833333,0.009177493863
0.04122916667,0.009009406902
0.04125,0.008906017989
0.04127083333,0.008760776371
0.04129166667,0.008664231747
0.0413125,0.008607582189
0.04133333333,0.008534150198
0.04135416667,0.008599782363
0.041375,0.008522493765
0.04139583333,0.008421691135
0.04141666667,0.00854758732
0.0414375,0.008454969153
0.04145833333,0.008492470719
0.04147916667,0.008554449305
0.0415,0.008461201563
0.04152083333,0.008467829786
0.04154166667,0.008557463996
0.0415625,0.008437671699
0.04158333333,0.008529249579
0.04160416667,0.008561069146
0.041625,0.008662093431
0.04164583333,0.008654401638
0.04166666667,0.008694542572
0.0416875,0.008718899451
0.04170833333,0.008742945269
0.04172916667,0.008715426549
0.04175,0.008724921383
0.04177083333,0.008782897145
0.04179166667,0.008674399927
0.0418125,0.008622751571
0.04183333333,0.008585801348
0.04185416667,0.008501671255
0.041875,0.008441103622
0.04189583333,0.008428019471
0.04191666667,0.00838327501
0.0419375,0.008331087418
0.04195833333,0.008335717954
0.04197916667,0.008361838758
0.042,0.008276305161
0.04202083333,0.008245496079
0.04204166667,0.008101112209
0.0420625,0.008014973253
0.04208333333,0.007903981023
0.04210416667,0.007821878418
0.042125,0.007772833109
0.04214583333,0.007759590168
0.04216666667,0.007638453972
0.0421875,0.007590690628
0.04220833333,0.007565936074
0.04222916667,0.007378871553
0.04225,0.007351702545
0.04227083333,0.007298695389
0.04229166667,0.007425286341
0.0423125,0.007391168736
0.04233333333,0.007393913809
0.04235416667,0.007411171217
0.042375,0.00735509349
0.04239583333,0.00736826472
0.04241666667,0.007278748322
0.0424375,0.007194260601
0.04245833333,0.007181930356
0.04247916667,0.007230258547
0.0425,0.007241748739
0.04252083333,0.007357317489
0.04254166667,0.007415508386
0.0425625,0.007397178095
0.04258333333,0.007546325214
0.04260416667,0.00758332666
0.042625,0.007514197845
0.04264583333,0.007449605968
0.04266666667,0.007341607939
0.0426875,0.007218711544
0.04270833333,0.007187531795
0.04272916667,0.007020031568
0.04275,0.00683856383
0.04277083333,0.006732011214
0.04279166667,0.006671902724
0.0428125,0.00655848952
0.04283333333,0.006423776038
0.04285416667,0.006331541575
0.042875,0.00616155332
0.04289583333,0.005963327363
0.04291666667,0.005743996706
0.0429375,0.005581735168
0.04295833333,0.005420854781
0.04297916667,0.005240471568
0.043,0.00510464143
0.04302083333,0.00500013167
0.04304166667,0.00491553219
0.0430625,0.004764279351
0.04308333333,0.004690804519
0.04310416667,0.004655541386
0.043125,0.00458368985
0.04314583333,0.00457179267
0.04316666667,0.004439002834
0.0431875,0.004387950059
0.04320833333,0.004219823983
0.04322916667,0.004106826149
0.04325,0.004021200351
0.04327083333,0.003905232064
0.04329166667,0.003879343858
0.0433125,0.003738571191
0.04333333333,0.003581761615
0.04335416667,0.003474793397
0.043375,0.003346138401
0.04339583333,0.003233373398
0.04341666667,0.003178576473
0.0434375,0.002972977934
0.04345833333,0.002815347165
0.04347916667,0.002653137082
0.0435,0.002442829777
0.04352083333,0.002418482676
0.04354166667,0.002313025296
0.0435625,0.002247312339
0.04358333333,0.002169068437
0.04360416667,0.002149841515
0.043625,0.002076269593
0.04364583333,0.0021130268
0.04366666667,0.00211713207
0.0436875,0.00216154824
0.04370833333,0.002217105124
0.04372916667,0.002215985209
0.04375,0.002259928035
0.04377083333,0.002317409031
0.04379166667,0.002367925365
0.0438125,0.002297938103
0.04383333333,0.002323980676
0.04385416667,0.00227519311
0.043875,0.002289676573
0.04389583333,0.002245512791
0.04391666667,0.002229840495
0.0439375,0.002250573598
0.04395833333,0.002250089077
0.04397916667,0.002250739606
0.044,0.002265482675
0.04402083333,0.00227837055
0.04404166667,0.002221481642
0.0440625,0.002198883798
0.04408333333,0.002219003858
0.04410416667,0.002158164978
0.044125,0.002152912552
0.04414583333,0.002122503938
0.04416666667,0.002134193201
0.0441875,0.002109653084
0.04420833333,0.00215197308
0.04422916667,0.002189501887
0.04425,0.002137230709
0.04427083333,0.002028476447
0.04429166667,0.001993762795
0.0443125,0.001884544385
0.04433333333,0.00168167497
0.04435416667,0.001547944034
0.044375,0.001458897139
0.04439583333,0.001388988807
0.04441666667,0.001315960311
0.0444375,0.001185644534
0.04445833333,0.001075282344
0.04447916667,0.001001722878
0.0445,0.0009071070817
0.04452083333,0.0008190214285
0.04454166667,0.0007525082328
0.0445625,0.0007187222946
0.04458333333,0.0007439241745
0.04460416667,0.0006572589045
0.044625,0.0006677753991
0.04464583333,0.0006222075899
0.04466666667,0.0005208852235
0.0446875,0.0004665879533
0.04470833333,0.0003789808834
0.04472916667,0.0003536419244
0.04475,0.0003601948556
0.04477083333,0.0002916193334
0.04479166667,0.0001517254277
0.0448125,0.0001610943436
0.04483333333,0.0001234434894
0.04485416667,6.407820911e-05
0.044875,5.862374383e-05
0.04489583333,3.895847476e-05
0.04491666667,7.278882549e-05
0.0449375,4.41250595e-05
0.04495833333,-5.638605217e-05
0.04497916667,-0.0001439812622
0.045,-0.0002995361865
0.04502083333,-0.0004335831036
0.04504166667,-0.0005724764196
0.0450625,-0.0007662342978
0.04508333333,-0.0008839037037
0.04510416667,-0.001029487583
0.045125,-0.001128995442
0.04514583333,-0.001251518959
0.04516666667,-0.001283586724
0.0451875,-0.001405559713
0.04520833333,-0.001507523586
0.04522916667,-0.001507878071
0.04525,-0.001682379749
0.04527083333,-0.001798795303
0.04529166667,-0.001842483529
0.0453125,-0.001968741417
0.04533333333,-0.002137504751
0.04535416667,-0.002261820249
0.045375,-0.002404494211
0.04539583333,-0.002530328464
0.04541666667,-0.00261706789
0.0454375,-0.002609994495
0.04545833333,-0.002582185203
0.04547916667,-0.002583399182
0.0455,-0.002549750963
0.04552083333,-0.002544567455
0.04554166667,-0.002519885078
0.0455625,-0.002509308513
0.04558333333,-0.002422932303
0.04560416667,-0.002397932112
0.045625,-0.00244500814
0.04564583333,-0.002496700734
0.04566666667,-0.002547542797
0.0456875,-0.002607285976
0.04570833333,-0.002699535573
0.04572916667,-0.002679038327
0.04575,-0.002781358315
0.04577083333,-0.002905026078
0.04579166667,-0.002992938738
0.0458125,-0.003160951892
0.04583333333,-0.003275013994
0.04585416667,-0.003427655669
0.045875,-0.003646418918
0.04589583333,-0.003820921294
0.04591666667,-0.003969570622
0.0459375,-0.004174653441
0.04595833333,-0.004308960401
0.04597916667,-0.004497863352
0.046,-0.004628113937
0.04602083333,-0.004805159755
0.04604166667,-0.005053041968
0.0460625,-0.005225595087
0.04608333333,-0.005398513284
0.04610416667,-0.005546287633
0.046125,-0.005681403913
0.04614583333,-0.005769292824
0.04616666667,-0.005887290463
0.0461875,-0.00595519878
0.04620833333,-0.005983454641
0.04622916667,-0.006063594483
0.04625,-0.006128321402
0.04627083333,-0.006156764459
0.04629166667,-0.006199989934
0.0463125,-0.006210407242
0.04633333333,-0.006198791321
0.04635416667,-0.006246547215
0.046375,-0.006254250649
0.04639583333,-0.006313495804
0.04641666667,-0.006317375228
0.0464375,-0.006310174707
0.04645833333,-0.00633772416
0.04647916667,-0.006296497304
0.0465,-0.006272736471
0.04652083333,-0.006307574455
0.04654166667,-0.006360783242
0.0465625,-0.006392391864
0.04658333333,-0.006407238543
0.04660416667,-0.00640535634
0.046625,-0.006497367285
0.04664583333,-0.006462950725
0.04666666667,-0.00645181397
0.0466875,-0.006424100604
0.04670833333,-0.006432453636
0.04672916667,-0.006553325802
0.04675,-0.006596359424
0.04677083333,-0.006615594495
0.04679166667,-0.006589682773
0.0468125,-0.006583148614
0.04683333333,-0.006685829721
0.04685416667,-0.006770858075
0.046875,-0.006890232675
0.04689583333,-0.006985797547
0.04691666667,-0.007029311266
0.0469375,-0.007108595688
0.04695833333,-0.007079688832
0.04697916667,-0.007074758876
0.047,-0.006977260113
0.04702083333,-0.006995106116
0.04704166667,-0.006940463558
0.0470625,-0.007014730014
0.04708333333,-0.007043744903
0.04710416667,-0.007039161399
0.047125,-0.007037890144
0.04714583333,-0.007058516145
0.04716666667,-0.007106074132
0.0471875,-0.007114407141
0.04720833333,-0.007077574264
0.04722916667,-0.007035699673
0.04725,-0.006953944452
0.04727083333,-0.006909592077
0.04729166667,-0.006935675628
0.0473125,-0.006900280714
0.04733333333,-0.006968275644
0.04735416667,-0.007001998834
0.047375,-0.007001203485
0.04739583333,-0.007014208939
0.04741666667,-0.006973727606
0.0474375,-0.007005891297
0.04745833333,-0.007007458247
0.04747916667,-0.00701133674
0.0475,-0.007064803503
0.04752083333,-0.0070238607
0.04754166667,-0.006995653734
0.0475625,-0.007032111753
0.04758333333,-0.006995175034
0.04760416667,-0.007050679531
0.047625,-0.007037181873
0.04764583333,-0.007123405579
0.04766666667,-0.007192115299
0.0476875,-0.007139849477
0.04770833333,-0.007241908927
0.04772916667,-0.00718373619
0.04775,-0.007164512761
0.04777083333,-0.007141284645
0.04779166667,-0.007221709937
0.0478125,-0.007324024104
0.04783333333,-0.007414828986
0.04785416667,-0.007524088491
0.047875,-0.007597328164
0.04789583333,-0.007693131454
0.04791666667,-0.007723532151
0.0479375,-0.007767701522
0.04795833333,-0.007864281535
0.04797916667,-0.007864126004
0.048,-0.008036721498
0.04802083333,-0.008174089715
0.04804166667,-0.008245790377
0.0480625,-0.008373376913
0.04808333333,-0.008460884914
0.04810416667,-0.008572199382
0.048125,-0.008547145873
0.04814583333,-0.008662528358
0.04816666667,-0.008847157471
0.0481875,-0.00888261199
0.04820833333,-0.00904526934
0.04822916667,-0.009161895141
0.04825,-0.009198861197
0.04827083333,-0.009303095751
0.04829166667,-0.009439005516
0.0483125,-0.009570061229
0.04833333333,-0.009709287435
0.04835416667,-0.009903298691
0.048375,-0.01004649606
0.04839583333,-0.01016982272
0.04841666667,-0.01034325175
0.0484375,-0.01045728941
0.04845833333,-0.01063630264
0.04847916667,-0.01076656953
0.0485,-0.01086919103
0.04852083333,-0.01096913032
0.04854166667,-0.01107910927
0.0485625,-0.01112482976
0.04858333333,-0.01123048924
0.04860416667,-0.01131158881
0.048625,-0.01139124297
0.04864583333,-0.01159647107
0.04866666667,-0.01171694789
0.0486875,-0.01190214232
0.04870833333,-0.01202830579
0.04872916667,-0.01212545484
0.04875,-0.01219500974
0.04877083333,-0.01221065875
0.04879166667,-0.01231190376
0.0488125,-0.01248223614
0.04883333333,-0.01260172855
0.04885416667,-0.012803372
0.048875,-0.01288984809
0.04889583333,-0.01304922253
0.04891666667,-0.01312076114
0.0489375,-0.01326958369
0.04895833333,-0.01340371557
0.04897916667,-0.0135025233
0.049,-0.01362559665
0.04902083333,-0.01363010053
0.04904166667,-0.01379105449
0.0490625,-0.01380275004
0.04908333333,-0.01379657909
0.04910416667,-0.01381755061
0.049125,-0.01375873759
0.04914583333,-0.01377424318
0.04916666667,-0.01380615681
0.0491875,-0.01387554873
0.04920833333,-0.01393261924
0.04922916667,-0.0139539903
0.04925,-0.01399199851
0.04927083333,-0.01402847841
0.04929166667,-0.01403474435
0.0493125,-0.01412814856
0.04933333333,-0.01420378219
0.04935416667,-0.01421100553
0.049375,-0.01417806558
0.04939583333,-0.01411297917
0.04941666667,-0.01411295775
0.0494375,-0.01410479564
0.04945833333,-0.01409826986
0.04947916667,-0.0140657248
0.0495,-0.014101265
0.04952083333,-0.01399406046
0.04954166667,-0.01403769944
0.0495625,-0.01402042154
0.04958333333,-0.01393551752
0.04960416667,-0.01385683939
0.049625,-0.01371673122
0.04964583333,-0.01372911409
0.04966666667,-0.0136996191
0.0496875,-0.01366465539
0.04970833333,-0.01364211924
0.04972916667,-0.01363586076
0.04975,-0.01355075464
0.04977083333,-0.01355463173
0.04979166667,-0.01352033578
0.0498125,-0.01344142295
0.04983333333,-0.01342750527
0.04985416667,-0.01340933144
0.049875,-0.01340791211
0.04989583333,-0.01337675005
0.04991666667,-0.01333041117
0.0499375,-0.01335231215
0.04995833333,-0.01333595347
0.04997916667,-0.01329434011
0.05,-0.01322923135
0.05002083333,-0.01318879612
0.05004166667,-0.01310641877
0.0500625,-0.01304058079
0.05008333333,-0.01294004731
0.05010416667,-0.01282453164
0.050125,-0.01277505793
0.05014583333,-0.01272286475
0.05016666667,-0.0126210833
0.0501875,-0.01253190916
0.05020833333,-0.01246146671
0.05022916667,-0.01234485302
0.05025,-0.01225083228
0.05027083333,-0.01210023835
0.05029166667,-0.01192740817
0.0503125,-0.01179436594
0.05033333333,-0.01172788627
0.05035416667,-0.0116317356
0.050375,-0.01145069674
0.05039583333,-0.01134305913
0.05041666667,-0.01120986696
0.0504375,-0.01103296038
0.05045833333,-0.01093344949
0.05047916667,-0.0107729556
0.0505,-0.01054845192
0.05052083333,-0.01042123605
0.05054166667,-0.01018991414
0.0505625,-0.00996706821
0.05058333333,-0.00970915053
0.05060416667,-0.009552369826
0.050625,-0.009300771169
0.05064583333,-0.009104150347
0.05066666667,-0.00897560548
0.0506875,-0.008794330992
0.05070833333,-0.008569093421
0.05072916667,-0.008406392299
0.05075,-0.008351364173
0.05077083333,-0.008170358837
0.05079166667,-0.008008952253
0.0508125,-0.007746558171
0.05083333333,-0.007515111938
0.05085416667,-0.007343534846
0.050875,-0.007091895677
0.05089583333,-0.006908878684
0.05091666667,-0.006781501696
0.0509375,-0.006613339763
0.05095833333,-0.006488570012
0.05097916667,-0.006334938109
0.051,-0.00621725386
0.05102083333,-0.006033266895
0.05104166667,-0.005817896221
0.0510625,-0.00560056651
0.05108333333,-0.005465015303
0.05110416667,-0.005311021116
0.051125,-0.005149359349
0.05114583333,-0.004972098861
0.05116666667,-0.004879800603
0.0511875,-0.004809907638
0.05120833333,-0.004712566268
0.05122916667,-0.004626901355
0.05125,-0.004484370351
0.05127083333,-0.004309789743
0.05129166667,-0.004179608542
0.0513125,-0.004120730329
0.05133333333,-0.003951812163
0.05135416667,-0.003852909664
0.051375,-0.00374136772
0.05139583333,-0.003589027794
0.05141666667,-0.003553230781
0.0514375,-0.003404631978
0.05145833333,-0.003285591491
0.05147916667,-0.00321602216
0.0515,-0.003086584853
0.05152083333,-0.002826766809
0.05154166667,-0.002697649878
0.0515625,-0.002634746721
0.05158333333,-0.002576329978
0.05160416667,-0.002512454987
0.051625,-0.002417770447
0.05164583333,-0.002358869882
0.05166666667,-0.002278798027
0.0516875,-0.002164614387
0.05170833333,-0.002065363573
0.05172916667,-0.001951017417
0.05175,-0.001862375415
0.05177083333,-0.001759198844
0.05179166667,-0.001667459845
0.0518125,-0.00156128197
0.05183333333,-0.001452899771
0.05185416667,-0.00134087936
0.051875,-0.001261642436
0.05189583333,-0.001240362646
0.05191666667,-0.001238018624
0.0519375,-0.00123283756
0.05195833333,-0.001187374466
0.05197916667,-0.001183965825
0.052,-0.001106998185
0.05202083333,-0.001061815419
0.05204166667,-0.001031908439
0.0520625,-0.0010271176
0.05208333333,-0.000991703826
0.05210416667,-0.001020482159
0.052125,-0.0009865460452
0.05214583333,-0.00100389123
0.05216666667,-0.0009322071564
0.0521875,-0.0008916145889
0.05220833333,-0.0008227064391
0.05222916667,-0.0006722196704
0.05225,-0.000604688481
0.05227083333,-0.0005952134961
0.05229166667,-0.0005102977157
0.0523125,-0.0004072054871
0.05233333333,-0.0003577845055
0.05235416667,-0.0003099858004
0.052375,-0.0002410540619
0.05239583333,-0.0002128619089
0.05241666667,-0.0002215763379
0.0524375,-0.0001416109444
0.05245833333,-5.602027522e-05
0.05247916667,-7.380970055e-05
0.0525,-1.73722583e-05
0.05252083333,6.843278243e-06
0.05254166667,4.507426638e-05
0.0525625,0.0001247922191
0.05258333333,0.0001797693549
0.05260416667,0.0002182368189
0.052625,0.0002812748135
0.05264583333,0.0003317106166
0.05266666667,0.0003537790617
0.0526875,0.0004499533388
0.05270833333,0.0005259922473
0.05272916667,0.0005711233243
0.05275,0.0006081630709
0.05277083333,0.000732297136
0.05279166667,0.0008479882963
0.0528125,0.000945038395
0.05283333333,0.001088685822
0.05285416667,0.001234294847
0.052875,0.001380807022
0.05289583333,0.00151587883
0.05291666667,0.001621690462
0.0529375,0.001711707562
0.05295833333,0.001882373006
0.05297916667,0.002033624565
0.053,0.002153446665
0.05302083333,0.002276826883
0.05304166667,0.002319045365
0.0530625,0.002403672785
0.05308333333,0.002469857689
0.05310416667,0.00256727403
0.053125,0.002757888753
0.05314583333,0.002796245273
0.05316666667,0.002911390271
0.0531875,0.003006451298
0.05320833333,0.003071126295
0.05322916667,0.003131244099
0.05325,0.003084355965
0.05327083333,0.003153510392
0.05329166667,0.003223661333
0.0533125,0.003270859364
0.05333333333,0.003329609986
0.05335416667,0.003382047173
0.053375,0.003429177916
0.05339583333,0.003474768484
0.05341666667,0.003541111946
0.0534375,0.003637121757
0.05345833333,0.003684632713
0.05347916667,0.003769058501
0.0535,0.003800704842
0.05352083333,0.003876092378
0.05354166667,0.003862775862
0.0535625,0.003903367557
0.05358333333,0.00398313906
0.05360416667,0.004066354129
0.053625,0.004229919985
0.05364583333,0.004336065613
0.05366666667,0.004504771437
0.0536875,0.004675548989
0.05370833333,0.004898371175
0.05372916667,0.004995699041
0.05375,0.005106815603
0.05377083333,0.005207479466
0.05379166667,0.00528796576
0.0538125,0.005431894679
0.05383333333,0.005491345655
0.05385416667,0.005588219035
0.053875,0.005674851127
0.05389583333,0.005774531048
0.05391666667,0.005852556787
0.0539375,0.005949848797
0.05395833333,0.006137697957
0.05397916667,0.006266184617
0.054,0.006348114926
0.05402083333,0.006400464568
0.05404166667,0.006480028387
0.0540625,0.006562475115
0.05408333333,0.006705850828
0.05410416667,0.006775744725
0.054125,0.00686216075
0.05414583333,0.006947099697
0.05416666667,0.006991236471
0.0541875,0.007110165432
0.05420833333,0.007235516794
0.05422916667,0.007275821175
0.05425,0.007383510005
0.05427083333,0.007397108711
0.05429166667,0.007449810393
0.0543125,0.007530095056
0.05433333333,0.007619698532
0.05435416667,0.007709302474
0.054375,0.007764984854
0.05439583333,0.007826372981
0.05441666667,0.007914676331
0.0544375,0.007948195562
0.05445833333,0.008060920984
0.05447916667,0.008178299293
0.0545,0.008250497282
0.05452083333,0.008379140869
0.05454166667,0.008394946344
0.0545625,0.008484127
0.05458333333,0.008518360555
0.05460416667,0.008619425818
0.054625,0.008766279556
0.05464583333,0.008860537782
0.05466666667,0.00893682614
0.0546875,0.008975446224
0.05470833333,0.009042842314
0.05472916667,0.00913491752
0.05475,0.009156671353
0.05477083333,0.009259645827
0.05479166667,0.009286721237
0.0548125,0.009329358116
0.05483333333,0.009378016926
0.05485416667,0.009431554005
0.054875,0.009525734
0.05489583333,0.009611958638
0.05491666667,0.009717256762
0.0549375,0.0097690681
0.05495833333,0.00985976588
0.05497916667,0.00993730966
0.055,0.0099408729
0.05502083333,0.00999351684
0.05504166667,0.01002195571
0.0550625,0.01005122159
0.05508333333,0.01008482371
0.05510416667,0.01012831368
0.055125,0.01019790024
0.05514583333,0.01031747181
0.05516666667,0.01037950907
0.0551875,0.01046543755
0.05520833333,0.01057987753
0.05522916667,0.01071573887
0.05525,0.01080649998
0.05527083333,0.01096022408
0.05529166667,0.011048696
0.0553125,0.01113239396
0.05533333333,0.01121896971
0.05535416667,0.0112548098
0.055375,0.0113321133
0.05539583333,0.0113718519
0.05541666667,0.01137731876
0.0554375,0.0114725735
0.05545833333,0.01146052685
0.05547916667,0.0115108164
0.0555,0.01149782073
0.05552083333,0.01155328006
0.05554166667,0.01159028616
0.0555625,0.01154225599
0.05558333333,0.01161557529
0.05560416667,0.01163227111
0.055625,0.01169124898
0.05564583333,0.01171616931
0.05566666667,0.01164210122
0.0556875,0.01168681961
0.05570833333,0.01165376324
0.05572916667,0.01164793223
0.05575,0.01168748457
0.05577083333,0.01178618893
0.05579166667,0.01185049582
0.0558125,0.01190778986
0.05583333333,0.01192758791
0.05585416667,0.01202544477
0.055875,0.01211686246
0.05589583333,0.01219218597
0.05591666667,0.01232124027
0.0559375,0.0123747522
0.05595833333,0.01244781539
0.05597916667,0.01251943689
0.056,0.01259177085
0.05602083333,0.01268256921
0.05604166667,0.01273387298
0.0560625,0.01278201211
0.05608333333,0.01283537503
0.05610416667,0.01289217826
0.056125,0.01287180651
0.05614583333,0.01287329756
0.05616666667,0.01287525054
0.0561875,0.01285687275
0.05620833333,0.01284044981
0.05622916667,0.01284926012
0.05625,0.01283948217
0.05627083333,0.01284424122
0.05629166667,0.01284732483
0.0563125,0.01286590192
0.05633333333,0.01290190406
0.05635416667,0.01283619646
0.056375,0.01290281303
0.05639583333,0.01289289445
0.05641666667,0.01288979594
0.0564375,0.01286352798
0.05645833333,0.01283191983
0.05647916667,0.01278158836
0.0565,0.01269247849
0.05652083333,0.01270756125
0.05654166667,0.01266248152
0.0565625,0.01268116478
0.05658333333,0.01271861792
0.05660416667,0.01274656225
0.056625,0.01278703474
0.05664583333,0.01278862916
0.05666666667,0.0128239952
0.0566875,0.01280350052
0.05670833333,0.01288652979
0.05672916667,0.01286512986
0.05675,0.01285166666
0.05677083333,0.01288477611
0.05679166667,0.01290267427
0.0568125,0.01290853415
0.05683333333,0.01285920572
0.05685416667,0.0129262954
0.056875,0.01289373916
0.05689583333,0.01287304796
0.05691666667,0.01287222747
0.0569375,0.0128736794
0.05695833333,0.01286805701
0.05697916667,0.01285041217
0.057,0.01285260636
0.05702083333,0.01282821503
0.05704166667,0.01282276586
0.0570625,0.01280598715
0.05708333333,0.01279875915
0.05710416667,0.01281220652
0.057125,0.01275891904
0.05714583333,0.01278836187
0.05716666667,0.01276848931
0.0571875,0.01276724972
0.05720833333,0.01273860782
0.05722916667,0.01276953891
0.05725,0.01272606105
0.05727083333,0.01270672306
0.05729166667,0.01271327026
0.0573125,0.01269284915
0.05733333333,0.01269842964
0.05735416667,0.01270114258
0.057375,0.0127369985
0.05739583333,0.0127682928
0.05741666667,0.01280243136
0.0574375,0.01278596278
0.05745833333,0.01276785042
0.05747916667,0.01274769753
0.0575,0.01280614547
0.05752083333,0.01282063778
0.05754166667,0.01286119781
0.0575625,0.01296236739
0.05758333333,0.01304185018
0.05760416667,0.01307637803
0.057625,0.01307275333
0.05764583333,0.01311946753
0.05766666667,0.01312265638
0.0576875,0.0131385643
0.05770833333,0.01313208789
0.05772916667,0.01310274564
0.05775,0.01316722296
0.05777083333,0.01316514425
0.05779166667,0.01314341836
0.0578125,0.01320854295
0.05783333333,0.01326095406
0.05785416667,0.01328671817
0.057875,0.01325078029
0.05789583333,0.01327099651
0.05791666667,0.01323161088
0.0579375,0.0132174287
0.05795833333,0.013273485
0.05797916667,0.01327681076
0.058,0.01333030313
0.05802083333,0.01339453738
0.05804166667,0.01345715951
0.0580625,0.01348313875
0.05808333333,0.01356200315
0.05810416667,0.01357368752
0.058125,0.01359977201
0.05814583333,0.01357505098
0.05816666667,0.01358712744
0.0581875,0.0136810001
0.05820833333,0.01369805355
0.05822916667,0.01381712127
0.05825,0.01382372249
0.05827083333,0.01387081109
0.05829166667,0.0138677787
0.0583125,0.01385905687
0.05833333333,0.01387933735
0.05835416667,0.01388949621
0.058375,0.01394411735
0.05839583333,0.01393393334
0.05841666667,0.01400733087
0.0584375,0.01399174146
0.05845833333,0.01399572846
0.05847916667,0.01410921384
0.0585,0.01417183783
0.05852083333,0.01417780202
0.05854166667,0.01420818083
0.0585625,0.01420845557
0.05858333333,0.01430016104
0.05860416667,0.0143300062
0.058625,0.0144066494
0.05864583333,0.0144150015
0.05866666667,0.01443017926
0.0586875,0.01446325891
0.05870833333,0.01450548042
0.05872916667,0.01455941983
0.05875,0.01462616213
0.05877083333,0.01475469582
0.05879166667,0.01477302052
0.0588125,0.01474811323
0.05883333333,0.01478323527
0.05885416667,0.01472744718
0.058875,0.01471624896
0.05889583333,0.01470647473
0.05891666667,0.01471889205
0.0589375,0.01471016183
0.05895833333,0.01468172576
0.05897916667,0.01469234191
0.059,0.01468527317
0.05902083333,0.01474972442
0.05904166667,0.01478253026
0.0590625,0.01482598856
0.05908333333,0.01478990912
0.05910416667,0.01480592974
0.059125,0.0148350466
0.05914583333,0.01487265341
0.05916666667,0.01490570046
0.0591875,0.01490839012
0.05920833333,0.01487507299
0.05922916667,0.01489681285
0.05925,0.01491472777
0.05927083333,0.01493418217
0.05929166667,0.01499159634
0.0593125,0.01502802595
0.05933333333,0.0149958469
0.05935416667,0.01496086549
0.059375,0.01490794588
0.05939583333,0.0149218766
0.05941666667,0.0149075808
0.0594375,0.01492384821
0.05945833333,0.01490616146
0.05947916667,0.01488780603
0.0595,0.01486802474
0.05952083333,0.01480601728
0.05954166667,0.01479128934
0.0595625,0.01479464211
0.05958333333,0.01476373617
0.05960416667,0.0147543326
0.059625,0.01466483437
0.05964583333,0.01467043348
0.05966666667,0.01460772473
0.0596875,0.01454980951
0.05970833333,0.01453682221
0.05972916667,0.01446188055
0.05975,0.01441102941
0.05977083333,0.01436409261
0.05979166667,0.0143048577
0.0598125,0.01428312063
0.05983333333,0.01429279055
0.05985416667,0.01429539546
0.059875,0.0143102454
0.05989583333,0.01422994211
0.05991666667,0.01417132653
0.0599375,0.01417758875
0.05995833333,0.01417841483
0.05997916667,0.01421418227
0.06,0.0142174419
0.06002083333,0.01415500324
0.06004166667,0.01414075308
0.0600625,0.01408325788
0.06008333333,0.01407959592
0.06010416667,0.01408169884
0.060125,0.01409769803
0.06014583333,0.01410244778
0.06016666667,0.01404470205
0.0601875,0.01399943605
0.06020833333,0.01389660779
0.06022916667,0.01381729171
0.06025,0.01380027179
0.06027083333,0.01375409029
0.06029166667,0.01368198264
0.0603125,0.01358467154
0.06033333333,0.01348979864
0.06035416667,0.01338051353
0.060375,0.01334007736
0.06039583333,0.01322297938
0.06041666667,0.01312637422
0.0604375,0.01302963402
0.06045833333,0.01296111755
0.06047916667,0.01289309189
0.0605,0.01279561874
0.06052083333,0.01272686571
0.06054166667,0.01260789484
0.0605625,0.01251010504
0.06058333333,0.01238906197
0.06060416667,0.01230590977
0.060625,0.01218592096
0.06064583333,0.01210418902
0.06066666667,0.01204587054
0.0606875,0.01197762694
0.06070833333,0.01189241931
0.06072916667,0.01176293194
0.06075,0.01165844686
0.06077083333,0.01157908607
0.06079166667,0.01151951682
0.0608125,0.01137655042
0.06083333333,0.01125025097
0.06085416667,0.011152911
0.060875,0.01103025954
0.06089583333,0.01095641684
0.06091666667,0.0108013982
0.0609375,0.01070378348
0.06095833333,0.01063635759
0.06097916667,0.01057506353
0.061,0.01049797889
0.06102083333,0.0103732897
0.06104166667,0.01022880245
0.0610625,0.01007282175
0.06108333333,0.009984826669
0.06110416667,0.009866372682
0.061125,0.009803613648
0.06114583333,0.009687494487
0.06116666667,0.009587061591
0.0611875,0.009488677606
0.06120833333,0.009382318705
0.06122916667,0.009300418198
0.06125,0.009203240275
0.06127083333,0.009128849953
0.06129166667,0.009063484147
0.0613125,0.008997971192
0.06133333333,0.008910533041
0.06135416667,0.008788706735
0.061375,0.008691039868
0.06139583333,0.008606372401
0.06141666667,0.008521571755
0.0614375,0.008380591869
0.06145833333,0.008254855871
0.06147916667,0.008147578686
0.0615,0.008047901094
0.06152083333,0.007876724005
0.06154166667,0.007843797095
0.0615625,0.007741759066
0.06158333333,0.007679695264
0.06160416667,0.00756144803
0.061625,0.007431233767
0.06164583333,0.007389582694
0.06166666667,0.007234390825
0.0616875,0.007074974477
0.06170833333,0.007003354374
0.06172916667,0.006882597227
0.06175,0.006731498521
0.06177083333,0.006599912886
0.06179166667,0.006569944788
0.0618125,0.006485584658
0.06183333333,0.00635739509
0.06185416667,0.006273011677
0.061875,0.006156541407
0.06189583333,0.006071636453
0.06191666667,0.005937183741
0.0619375,0.005865326617
0.06195833333,0.005739035085
0.06197916667,0.005609916523
0.062,0.005558250006
0.06202083333,0.005447965115
0.06204166667,0.005437509157
0.0620625,0.005339703523
0.06208333333,0.005223166663
0.06210416667,0.005161617417
0.062125,0.00502258027
0.06214583333,0.00494022062
0.06216666667,0.004876685794
0.0621875,0.004841026384
0.06220833333,0.004747284576
0.06222916667,0.004678832367
0.06225,0.004617576487
0.06227083333,0.004549464677
0.06229166667,0.004464273341
0.0623125,0.004312589765
0.06233333333,0.004264940508
0.06235416667,0.004178227391
0.062375,0.004143104888
0.06239583333,0.004041675944
0.06241666667,0.003951346967
0.0624375,0.003822994884
0.06245833333,0.003738882719
0.06247916667,0.003585274098
0.0625,0.003458167892
0.06252083333,0.003376534674
0.06254166667,0.003241760656
0.0625625,0.003252340714
0.06258333333,0.00308750337
0.06260416667,0.002981961705
0.062625,0.002935675671
0.06264583333,0.002806109842
0.06266666667,0.002724768594
0.0626875,0.002607486444
0.06270833333,0.002458479488
0.06272916667,0.002360002138
0.06275,0.002233053092
0.06277083333,0.002165393671
0.06279166667,0.002072450938
0.0628125,0.001995555824
0.06283333333,0.001881591976
0.06285416667,0.001816748641
0.062875,0.001696538413
0.06289583333,0.001600166666
0.06291666667,0.00147582381
0.0629375,0.001293034875
0.06295833333,0.001219289494
0.06297916667,0.001063468284
0.063,0.0009640710196
0.06302083333,0.0008168166969
0.06304166667,0.0006737854565
0.0630625,0.0005499643739
0.06308333333,0.0003806093009
0.06310416667,0.0002547434997
0.063125,6.486437633e-05
0.06314583333,-5.146343756e-05
0.06316666667,-0.0001665005984
0.0631875,-0.0003003602615
0.06320833333,-0.0004640867701
0.06322916667,-0.0006515515852
0.06325,-0.0007563145482
0.06327083333,-0.0008932045312
0.06329166667,-0.0009523518384
0.0633125,-0.001075188047
0.06333333333,-0.001185589237
0.06335416667,-0.001305011916
0.063375,-0.001447360497
0.06339583333,-0.001536525087
0.06341666667,-0.001666386495
0.0634375,-0.001808888046
0.06345833333,-0.001878496725
0.06347916667,-0.001914750086
0.0635,-0.001992051024
0.06352083333,-0.002117599593
0.06354166667,-0.002179674571
0.0635625,-0.002314713085
0.06358333333,-0.002377790632
0.06360416667,-0.002384565771
0.063625,-0.002407543827
0.06364583333,-0.002460360061
0.06366666667,-0.002475908492
0.0636875,-0.002574401442
0.06370833333,-0.002665704582
0.06372916667,-0.002836934058
0.06375,-0.002889314434
0.06377083333,-0.003024760634
0.06379166667,-0.003134292783
0.0638125,-0.003197768237
0.06383333333,-0.003295354079
0.06385416667,-0.003353990614
0.063875,-0.003454129212
0.06389583333,-0.003494048491
0.06391666667,-0.003600190859
0.0639375,-0.003629924264
0.06395833333,-0.003732352983
0.06397916667,-0.003810931696
0.064,-0.00392335467
0.06402083333,-0.003996822983
0.06404166667,-0.004048317205
0.0640625,-0.004198393319
0.06408333333,-0.004221295007
0.06410416667,-0.004289927427
0.064125,-0.004314236343
0.06414583333,-0.004414072726
0.06416666667,-0.004492111504
0.0641875,-0.004542116076
0.06420833333,-0.004629197065
0.06422916667,-0.004652651958
0.06425,-0.004715527408
0.06427083333,-0.004747224972
0.06429166667,-0.004811517894
0.0643125,-0.004832515959
0.06433333333,-0.004843209404
0.06435416667,-0.004873567261
0.064375,-0.004888895899
0.06439583333,-0.00496993307
0.06441666667,-0.005006381776
0.0644375,-0.005060794763
0.06445833333,-0.00509939855
0.06447916667,-0.005158807617
0.0645,-0.005248122383
0.06452083333,-0.005257176701
0.06454166667,-0.005314992741
0.0645625,-0.005320523866
0.06458333333,-0.005366923753
0.06460416667,-0.005406824406
0.064625,-0.005408443511
0.06464583333,-0.005497099832
0.06466666667,-0.005558322649
0.0646875,-0.005633146968
0.06470833333,-0.005738376174
0.06472916667,-0.00575340027
0.06475,-0.005880023353
0.06477083333,-0.005951603875
0.06479166667,-0.0059835352
0.0648125,-0.006063451059
0.06483333333,-0.006121327169
0.06485416667,-0.006185662933
0.064875,-0.006277332082
0.06489583333,-0.006367849186
0.06491666667,-0.006471633445
0.0649375,-0.006502627861
0.06495833333,-0.00657760771
0.06497916667,-0.006631835364
0.065,-0.006678265985
0.06502083333,-0.006758493837
0.06504166667,-0.006817178801
0.0650625,-0.006922975648
0.06508333333,-0.006971466821
0.06510416667,-0.00703699002
0.065125,-0.007089380175
0.06514583333,-0.007116595749
0.06516666667,-0.007152096368
0.0651875,-0.007225428242
0.06520833333,-0.007305745967
0.06522916667,-0.007415818982
0.06525,-0.007484540343
0.06527083333,-0.007542800624
0.06529166667,-0.007633848116
0.0653125,-0.00771006709
0.06533333333,-0.007824472152
0.06535416667,-0.007892685011
0.065375,-0.007992067374
0.06539583333,-0.008025905117
0.06541666667,-0.008046027273
0.0654375,-0.008060048334
0.06545833333,-0.0080894446
0.06547916667,-0.008135255426
0.0655,-0.008138732053
0.06552083333,-0.008158436976
0.06554166667,-0.008196790703
0.0655625,-0.008305663243
0.06558333333,-0.008359125815
0.06560416667,-0.008412689902
0.065625,-0.008477445692
0.06564583333,-0.00854013674
0.06566666667,-0.008546398021
0.0656875,-0.008602094837
0.06570833333,-0.00863351766
0.06572916667,-0.008684467524
0.06575,-0.008717135526
0.06577083333,-0.0087800771
0.06579166667,-0.008757902309
0.0658125,-0.008780481294
0.06583333333,-0.008842631243
0.06585416667,-0.008929363452
0.065875,-0.008992675692
0.06589583333,-0.009054994211
0.06591666667,-0.009075776674
0.0659375,-0.009110411629
0.06595833333,-0.009118352085
0.06597916667,-0.00915977452
0.066,-0.009165219963
0.06602083333,-0.009234567173
0.06604166667,-0.009279380552
0.0660625,-0.009292130359
0.06608333333,-0.009291142225
0.06610416667,-0.009296083823
0.066125,-0.009335329756
0.06614583333,-0.009356053546
0.06616666667,-0.009412964806
0.0661875,-0.009409322403
0.06620833333,-0.009392691776
0.06622916667,-0.009402960539
0.06625,-0.009421737865
0.06627083333,-0.009423581883
0.06629166667,-0.009426933713
0.0663125,-0.009425248951
0.06633333333,-0.009393723682
0.06635416667,-0.009379968047
0.066375,-0.009345861152
0.06639583333,-0.009325725026
0.06641666667,-0.009320754558
0.0664375,-0.0093224952
0.06645833333,-0.009303150699
0.06647916667,-0.009250966832
0.0665,-0.009249231778
0.06652083333,-0.009245809168
0.06654166667,-0.00928192772
0.0665625,-0.009265721776
0.06658333333,-0.009236845188
0.06660416667,-0.009238249622
0.066625,-0.009201586246
0.06664583333,-0.009205569513
0.06666666667,-0.009237457067
0.0666875,-0.009261255153
0.06670833333,-0.009296269156
0.06672916667,-0.009316741489
0.06675,-0.00932145305
0.06677083333,-0.009329232387
0.06679166667,-0.009316962212
0.0668125,-0.009320719168
0.06683333333,-0.00930081401
0.06685416667,-0.009290398099
0.066875,-0.009305051528
0.06689583333,-0.009318134747
0.06691666667,-0.009340593591
0.0669375,-0.009370138869
0.06695833333,-0.009409796447
0.06697916667,-0.009414259344
0.067,-0.009462873451
0.06702083333,-0.009501070715
0.06704166667,-0.009535847232
0.0670625,-0.009582744911
0.06708333333,-0.009622905403
0.06710416667,-0.009690582752
0.067125,-0.009655972011
0.06714583333,-0.009660016745
0.06716666667,-0.009658528492
0.0671875,-0.009676486254
0.06720833333,-0.009702162817
0.06722916667,-0.009706048295
0.06725,-0.009736183099
0.06727083333,-0.009776192717
0.06729166667,-0.009798134677
0.0673125,-0.009834314696
0.06733333333,-0.009881512262
0.06735416667,-0.009880215861
0.067375,-0.009914674796
0.06739583333,-0.009916665964
0.06741666667,-0.009983749129
0.0674375,-0.01000567153
0.06745833333,-0.01005607098
0.06747916667,-0.0101031037
0.0675,-0.01011668518
0.06752083333,-0.01011876669
0.06754166667,-0.01016294118
0.0675625,-0.01015313528
0.06758333333,-0.01014630403
0.06760416667,-0.0101891635
0.067625,-0.01021716371
0.06764583333,-0.0102794366
0.06766666667,-0.01030775905
0.0676875,-0.01029332541
0.06770833333,-0.01030912437
0.06772916667,-0.01034460124
0.06775,-0.01036888082
0.06777083333,-0.01040092483
0.06779166667,-0.01047061756
0.0678125,-0.01052223239
0.06783333333,-0.01054236479
0.06785416667,-0.01056414377
0.067875,-0.01057460345
0.06789583333,-0.01059864089
0.06791666667,-0.01061752252
0.0679375,-0.01062565576
0.06795833333,-0.01065541804
0.06797916667,-0.01067567803
0.068,-0.0106931068
0.06802083333,-0.0107138278
0.06804166667,-0.01079854649
0.0680625,-0.0108219441
0.06808333333,-0.01083252765
0.06810416667,-0.01088383049
0.068125,-0.01093052235
0.06814583333,-0.0110012386
0.06816666667,-0.0110539943
0.0681875,-0.01113992557
0.06820833333,-0.01123861037
0.06822916667,-0.01125387102
0.06825,-0.01130677201
0.06827083333,-0.01134316903
0.06829166667,-0.01140570454
0.0683125,-0.01149858534
0.06833333333,-0.01159924548
0.06835416667,-0.01164683886
0.068375,-0.01170909312
0.06839583333,-0.01170041412
0.06841666667,-0.01174085774
0.0684375,-0.0117564965
0.06845833333,-0.01184256561
0.06847916667,-0.01192297135
0.0685,-0.01196968742
0.06852083333,-0.01202542521
0.06854166667,-0.01209994406
0.0685625,-0.0121472152
0.06858333333,-0.01223189197
0.06860416667,-0.01228949055
0.068625,-0.01233969349
0.06864583333,-0.0124108931
0.06866666667,-0.01243085973
0.0686875,-0.01248243544
0.06870833333,-0.0124781495
0.06872916667,-0.01252916642
0.06875,-0.0125278905
0.06877083333,-0.01254782639
0.06879166667,-0.01259673107
0.0688125,-0.01259553153
0.06883333333,-0.0126754893
0.06885416667,-0.01266048476
0.068875,-0.01269728411
0.06889583333,-0.01274534874
0.06891666667,-0.01273626089
0.0689375,-0.0127782952
0.06895833333,-0.01274477318
0.06897916667,-0.01279282384
0.069,-0.01279436052
0.06902083333,-0.01281452179
0.06904166667,-0.01283176243
0.0690625,-0.01283578482
0.06908333333,-0.01284346823
0.06910416667,-0.01284996793
0.069125,-0.01289821509
0.06914583333,-0.01291006804
0.06916666667,-0.01291536354
0.0691875,-0.01291523967
0.06920833333,-0.01293170452
0.06922916667,-0.01297299378
0.06925,-0.01295890845
0.06927083333,-0.01298760995
0.06929166667,-0.01296550035
0.0693125,-0.01299769431
0.06933333333,-0.01304224133
0.06935416667,-0.01305005234
0.069375,-0.01303517632
0.06939583333,-0.01299981773
0.06941666667,-0.01295292191
0.0694375,-0.01290987525
0.06945833333,-0.01286916435
0.06947916667,-0.01285077631
0.0695,-0.0128168324
0.06952083333,-0.01277142763
0.06954166667,-0.01273373328
0.0695625,-0.01270714682
0.06958333333,-0.0126924729
0.06960416667,-0.01266937889
0.069625,-0.01259718928
0.06964583333,-0.01255379431
0.06966666667,-0.01250774041
0.0696875,-0.01246698573
0.06970833333,-0.01241840422
0.06972916667,-0.01236188971
0.06975,-0.01233413257
0.06977083333,-0.01225768216
0.06979166667,-0.0121968668
0.0698125,-0.01210940257
0.06983333333,-0.01200465299
0.06985416667,-0.01197118685
0.069875,-0.01192320697
0.06989583333,-0.0118910186
0.06991666667,-0.01188272424
0.0699375,-0.01179270633
0.06995833333,-0.01178602502
0.06997916667,-0.01172717568
0.07,-0.01170231588
0.07002083333,-0.01163423806
0.07004166667,-0.01156992372
0.0700625,-0.01150194835
0.07008333333,-0.01143497974
0.07010416667,-0.01135821547
0.070125,-0.0112863481
0.07014583333,-0.01125336625
0.07016666667,-0.0111917574
0.0701875,-0.01112474129
0.07020833333,-0.01104159094
0.07022916667,-0.01096989773
0.07025,-0.0109139625
0.07027083333,-0.01082973741
0.07029166667,-0.01077049039
0.0703125,-0.01072473731
0.07033333333,-0.01069195941
0.07035416667,-0.0105974311
0.070375,-0.01054226886
0.07039583333,-0.01042682864
0.07041666667,-0.01034962106
0.0704375,-0.01023585908
0.07045833333,-0.01015701983
0.07047916667,-0.0100619169
0.0705,-0.009946002625
0.07052083333,-0.009866473265
0.07054166667,-0.009784915484
0.0705625,-0.009677756578
0.07058333333,-0.009587663226
0.07060416667,-0.00949371513
0.070625,-0.009416986257
0.07064583333,-0.009352888912
0.07066666667,-0.009265410714
0.0706875,-0.009197027422
0.07070833333,-0.009095326997
0.07072916667,-0.008993048221
0.07075,-0.008922074921
0.07077083333,-0.00877731666
0.07079166667,-0.008759320714
0.0708125,-0.008635970764
0.07083333333,-0.008551750332
0.07085416667,-0.008425206877
0.070875,-0.008316111751
0.07089583333,-0.008239091374
0.07091666667,-0.008075807244
0.0709375,-0.008018602617
0.07095833333,-0.007917662151
0.07097916667,-0.007842843421
0.071,-0.007730301935
0.07102083333,-0.00757767912
0.07104166667,-0.007477082778
0.0710625,-0.00740805082
0.07108333333,-0.007293818053
0.07110416667,-0.007216090802
0.071125,-0.007129257079
0.07114583333,-0.007000512909
0.07116666667,-0.006868650671
0.0711875,-0.006726850756
0.07120833333,-0.006627479568
0.07122916667,-0.006498108618
0.07125,-0.006411127746
0.07127083333,-0.006306408439
0.07129166667,-0.006246301811
0.0713125,-0.006126665976
0.07133333333,-0.006021237932
0.07135416667,-0.005956975743
0.071375,-0.005882849451
0.07139583333,-0.005754153244
0.07141666667,-0.00570452353
0.0714375,-0.00561726233
0.07145833333,-0.005578486249
0.07147916667,-0.005556459073
0.0715,-0.005479670595
0.07152083333,-0.005404975731
0.07154166667,-0.005300816149
0.0715625,-0.005207880866
0.07158333333,-0.00510659162
0.07160416667,-0.005019498989
0.071625,-0.00495345192
0.07164583333,-0.00487660151
0.07166666667,-0.004795092158
0.0716875,-0.004729261622
0.07170833333,-0.004627425224
0.07172916667,-0.00449111592
0.07175,-0.004423421808
0.07177083333,-0.004312633537
0.07179166667,-0.004284557886
0.0718125,-0.004183921032
0.07183333333,-0.004055245779
0.07185416667,-0.003962202463
0.071875,-0.003868968226
0.07189583333,-0.003809005488
0.07191666667,-0.003696538275
0.0719375,-0.003643500386
0.07195833333,-0.003586666659
0.07197916667,-0.003473133082
0.072,-0.003381713526
0.07202083333,-0.003294510068
0.07204166667,-0.003208949696
0.0720625,-0.00311399973
0.07208333333,-0.00304693752
0.07210416667,-0.003002839629
0.072125,-0.00292579853
0.07214583333,-0.002844278933
0.07216666667,-0.002782329218
0.0721875,-0.002689758083
0.07220833333,-0.002637662459
0.07222916667,-0.002563766669
0.07225,-0.002485111356
0.07227083333,-0.002414581366
0.07229166667,-0.002325784881
0.0723125,-0.002227214864
0.07233333333,-0.002104167594
0.07235416667,-0.002027378418
0.072375,-0.002010845346
0.07239583333,-0.001912199659
0.07241666667,-0.001815374359
0.0724375,-0.001701957779
0.07245833333,-0.001606832724
0.07247916667,-0.001531808986
0.0725,-0.001464098576
0.07252083333,-0.001372659113
0.07254166667,-0.001273419592
0.0725625,-0.001209118986
0.07258333333,-0.001095977845
0.07260416667,-0.001007281942
0.072625,-0.0009236143087
0.07264583333,-0.0008297882159
0.07266666667,-0.0007591949543
0.0726875,-0.000667091459
0.07270833333,-0.0005519348779
0.07272916667,-0.00041907368
0.07275,-0.0002897974628
0.07277083333,-0.0002211209066
0.07279166667,-0.0001353719999
0.0728125,-5.025433347e-05
0.07283333333,3.590717824e-05
0.07285416667,0.0001369388629
0.072875,0.0002642285835
0.07289583333,0.0003571154666
0.07291666667,0.0004584936833
0.0729375,0.0005281729973
0.07295833333,0.0006388055626
0.07297916667,0.0007512458251
0.073,0.00090210489
0.07302083333,0.001011675573
0.07304166667,0.001105227973
0.0730625,0.001249459339
0.07308333333,0.001359902788
0.07310416667,0.001463930588
0.073125,0.001587601611
0.07314583333,0.001685400377
0.07316666667,0.001821446232
0.0731875,0.00191487174
0.07320833333,0.002016929444
0.07322916667,0.002099726116
0.07325,0.002166175982
0.07327083333,0.002252307255
0.07329166667,0.002363893203
0.0733125,0.002480312483
0.07333333333,0.002567045158
0.07335416667,0.002657672623
0.073375,0.002747738734
0.07339583333,0.002809639322
0.07341666667,0.002922569634
0.0734375,0.003013217822
0.07345833333,0.003112044651
0.07347916667,0.003219678765
0.0735,0.003329328261
0.07352083333,0.003412494669
0.07354166667,0.003505871631
0.0735625,0.003604627214
0.07358333333,0.003673006082
0.07360416667,0.003746418981
0.073625,0.003823860781
0.07364583333,0.003895926755
0.07366666667,0.003989742603
0.0736875,0.004056691658
0.07370833333,0.004132708535
0.07372916667,0.004192125518
0.07375,0.004292634316
0.07377083333,0.004348299
0.07379166667,0.004414749332
0.0738125,0.004485971294
0.07383333333,0.004558939487
0.07385416667,0.004634943791
0.073875,0.004688275047
0.07389583333,0.004757686518
0.07391666667,0.004813496955
0.0739375,0.00488791801
0.07395833333,0.004954845645
0.07397916667,0.004989438225
0.074,0.00502762571
0.07402083333,0.005063326098
0.07404166667,0.005098273512
0.0740625,0.005139603745
0.07408333333,0.005185608752
0.07410416667,0.005254362244
0.074125,0.005334542133
0.07414583333,0.005381889641
0.07416666667,0.005459363572
0.0741875,0.005513482727
0.07420833333,0.005581478588
0.07422916667,0.005644506309
0.07425,0.005674402695
0.07427083333,0.005723265931
0.07429166667,0.005781679414
0.0743125,0.005851412658
0.07433333333,0.005939344876
0.07435416667,0.006019104272
0.074375,0.00605174154
0.07439583333,0.006130382884
0.07441666667,0.006154871546
0.0744375,0.00621289853
0.07445833333,0.006324043963
0.07447916667,0.006388257258
0.0745,0.006497554947
0.07452083333,0.006567855366
0.07454166667,0.006603779271
0.0745625,0.006622724235
0.07458333333,0.006684069522
0.07460416667,0.006753508467
0.074625,0.006853958126
0.07464583333,0.006919109263
0.07466666667,0.006981899031
0.0746875,0.007044847589
0.07470833333,0.007070742548
0.07472916667,0.007107707206
0.07475,0.007163366769
0.07477083333,0.007219668478
0.07479166667,0.007305745501
0.0748125,0.007411382161
0.07483333333,0.007466819137
0.07485416667,0.00753116468
0.074875,0.00757010188
0.07489583333,0.007606409956
0.07491666667,0.007619166747
0.0749375,0.007676162757
0.07495833333,0.007771603297
0.07497916667,0.007842566818
0.075,0.007934217341
0.07502083333,0.007986101322
0.07504166667,0.008083152585
0.0750625,0.008156495169
0.07508333333,0.008217899129
0.07510416667,0.008294953033
0.075125,0.008341850713
0.07514583333,0.008429980837
0.07516666667,0.008520744741
0.0751875,0.008576784283
0.07520833333,0.008644061163
0.07522916667,0.008699921891
0.07525,0.008712572977
0.07527083333,0.008772065863
0.07529166667,0.008800053969
0.0753125,0.008855841123
0.07533333333,0.008915381506
0.07535416667,0.008990426548
0.075375,0.009034654126
0.07539583333,0.009071702138
0.07541666667,0.009081994183
0.0754375,0.00911064446
0.07545833333,0.009143919684
0.07547916667,0.009185594507
0.0755,0.009236671031
0.07552083333,0.00924233254
0.07554166667,0.009252783842
0.0755625,0.009292970411
0.07558333333,0.009342985228
0.07560416667,0.009415999055
0.075625,0.009462035261
0.07564583333,0.009502407163
0.07566666667,0.009577852674
0.0756875,0.00961567834
0.07570833333,0.009697349742
0.07572916667,0.009707431309
0.07575,0.009796942584
0.07577083333,0.009823386557
0.07579166667,0.009862826206
0.0758125,0.009911394678
0.07583333333,0.009966149926
0.07585416667,0.009991996922
0.075875,0.01003912836
0.07589583333,0.0100612035
0.07591666667,0.01009409875
0.0759375,0.01012813672
0.07595833333,0.0101570012
0.07597916667,0.01018017251
0.076,0.01019856427
0.07602083333,0.01021960005
0.07604166667,0.0102313133
0.0760625,0.01023301855
0.07608333333,0.01025638264
0.07610416667,0.01030441467
0.076125,0.010328223
0.07614583333,0.01035183202
0.07616666667,0.0103429025
0.0761875,0.01035874616
0.07620833333,0.01033667382
0.07622916667,0.01035821065
0.07625,0.01037752628
0.07627083333,0.0103942994
0.07629166667,0.01039205678
0.0763125,0.01038528327
0.07633333333,0.01039210055
0.07635416667,0.01038237382
0.076375,0.01037714258
0.07639583333,0.01037762593
0.07641666667,0.01036795229
0.0764375,0.01037902478
0.07645833333,0.01041448116
0.07647916667,0.01042390615
0.0765,0.01043645851
0.07652083333,0.01047135238
0.07654166667,0.01049016789
0.0765625,0.01051448286
0.07658333333,0.0105155902
0.07660416667,0.0105223991
0.076625,0.01051869243
0.07664583333,0.01055035274
0.07666666667,0.01056682877
0.0766875,0.01058173273
0.07670833333,0.0106066484
0.07672916667,0.01059865672
0.07675,0.01058893092
0.07677083333,0.01055722777
0.07679166667,0.01054225024
0.0768125,0.01054875925
0.07683333333,0.0105264578
0.07685416667,0.01055493206
0.076875,0.0105661517
0.07689583333,0.01060208678
0.07691666667,0.01061721891
0.0769375,0.01060782839
0.07695833333,0.01061144006
0.07697916667,0.01063383836
0.077,0.01063950546
0.07702083333,0.01064585894
0.07704166667,0.01067368034
0.0770625,0.01069313847
0.07708333333,0.01071923319
0.07710416667,0.0107160639
0.077125,0.0106898183
0.07714583333,0.01071554795
0.07716666667,0.01070264727
0.0771875,0.010730749
0.07720833333,0.01078239828
0.07722916667,0.01080373768
0.07725,0.01083651185
0.07727083333,0.0108328145
0.07729166667,0.01084254403
0.0773125,0.01084000338
0.07733333333,0.0108241234
0.07735416667,0.01080211997
0.077375,0.01079100743
0.07739583333,0.01077081915
0.07741666667,0.01080327574
0.0774375,0.01082102768
0.07745833333,0.01085155271
0.07747916667,0.01087362692
0.0775,0.01087467
0.07752083333,0.01087014843
0.07754166667,0.0108749941
0.0775625,0.01085649896
0.07758333333,0.01087987889
0.07760416667,0.01089815609
0.077625,0.01089527365
0.07764583333,0.01092726178
0.07766666667,0.01093283668
0.0776875,0.01096771099
0.07770833333,0.01096142735
0.07772916667,0.01094802283
0.07775,0.01094928477
0.07777083333,0.01091832854
0.07779166667,0.01093516219
0.0778125,0.01094730198
0.07783333333,0.01092887577
0.07785416667,0.01092415676
0.077875,0.01095834281
0.07789583333,0.01095319539
0.07791666667,0.01099171303
0.0779375,0.01097907405
0.07795833333,0.01097347867
0.07797916667,0.01099863648
0.078,0.01100581884
0.07802083333,0.0110085737
0.07804166667,0.01099990122
0.0780625,0.01100302953
0.07808333333,0.01101935189
0.07810416667,0.01102349907
0.078125,0.01106235571
0.07814583333,0.01106996462
0.07816666667,0.01106142066
0.0781875,0.01112856157
0.07820833333,0.01113721542
0.07822916667,0.01117134001
0.07825,0.01115923189
0.07827083333,0.01116763707
0.07829166667,0.01115622837
0.0783125,0.01119057741
0.07833333333,0.01119591203
0.07835416667,0.01117265131
0.078375,0.01122744381
0.07839583333,0.011201852
0.07841666667,0.01122249477
0.0784375,0.01121447422
0.07845833333,0.01122812275
0.07847916667,0.01125673205
0.0785,0.01124050003
0.07852083333,0.01125983056
0.07854166667,0.01122442819
0.0785625,0.01124691032
0.07858333333,0.01122352295
0.07860416667,0.01125537604
0.078625,0.01127778925
0.07864583333,0.01130070258
0.07866666667,0.01131197158
0.0786875,0.01129424199
0.07870833333,0.01127282344
0.07872916667,0.0112752635
0.07875,0.01129331347
0.07877083333,0.01131819561
0.07879166667,0.01134331431
0.0788125,0.0113077471
0.07883333333,0.01129784901
0.07885416667,0.01127419155
0.078875,0.01127265953
0.07889583333,0.0112919081
0.07891666667,0.01126142871
0.0789375,0.01129799895
0.07895833333,0.01128073875
0.07897916667,0.01124965958
0.079,0.01122948341
0.07902083333,0.01119983196
0.07904166667,0.01121468749
0.0790625,0.01119035017
0.07908333333,0.01117677707
0.07910416667,0.01115857996
0.079125,0.01112314221
0.07914583333,0.01110598166
0.07916666667,0.01107918564
0.0791875,0.01106805727
0.07920833333,0.01104480773
0.07922916667,0.0110509228
0.07925,0.01104547363
0.07927083333,0.01100987568
0.07929166667,0.01099845394
0.0793125,0.01096963603
0.07933333333,0.01093882602
0.07935416667,0.01091696788
0.079375,0.01091444492
0.07939583333,0.01091566775
0.07941666667,0.01088142022
0.0794375,0.01087733917
0.07945833333,0.01084553637
0.07947916667,0.01081575081
0.0795,0.01077818684
0.07952083333,0.01077222265
0.07954166667,0.0107942922
0.0795625,0.01081326138
0.07958333333,0.01079811249
0.07960416667,0.01075482555
0.079625,0.0107343588
0.07964583333,0.0107361665
0.07966666667,0.01073264889
0.0796875,0.01072071865
0.07970833333,0.01068560034
0.07972916667,0.01068171859
0.07975,0.01062303968
0.07977083333,0.01061297301
0.07979166667,0.01056992635
0.0798125,0.0105218105
0.07983333333,0.01048132777
0.07985416667,0.01043090038
0.079875,0.01040820498
0.07989583333,0.010336251
0.07991666667,0.01028507203
0.0799375,0.01027250476
0.07995833333,0.01023455895
0.07997916667,0.01018909924
0.08,0.01015520748
0.08002083333,0.01010085456
0.08004166667,0.01006496139
0.0800625,0.01002920419
0.08008333333,0.00997053273
0.08010416667,0.009939118288
0.080125,0.009868171066
0.08014583333,0.009845523164
0.08016666667,0.009772834368
0.0801875,0.009731002152
0.08020833333,0.009690339677
0.08022916667,0.009605899453
0.08025,0.009586787783
0.08027083333,0.009503259324
0.08029166667,0.009472053498
0.0803125,0.009401258081
0.08033333333,0.009328683838
0.08035416667,0.00924401544
0.080375,0.009149540216
0.08039583333,0.009075325914
0.08041666667,0.009011167102
0.0804375,0.008953854442
0.08045833333,0.008864114992
0.08047916667,0.008782403544
0.0805,0.008653732948
0.08052083333,0.008557443507
0.08054166667,0.008490005508
0.0805625,0.008410861716
0.08058333333,0.008366448805
0.08060416667,0.008287413046
0.080625,0.008198933676
0.08064583333,0.008131172508
0.08066666667,0.008031561039
0.0806875,0.007943335921
0.08070833333,0.007879386656
0.08072916667,0.007812695578
0.08075,0.007747586351
0.08077083333,0.007650673389
0.08079166667,0.007596496493
0.0808125,0.007483216934
0.08083333333,0.007412901614
0.08085416667,0.007313146256
0.080875,0.007220246363
0.08089583333,0.00714211585
0.08091666667,0.00704772165
0.0809375,0.00697078649
0.08095833333,0.006897949614
0.08097916667,0.00680893613
0.081,0.006716329604
0.08102083333,0.006586172152
0.08104166667,0.006474318448
0.0810625,0.006356779952
0.08108333333,0.006269820966
0.08110416667,0.006137570366
0.081125,0.006040325388
0.08114583333,0.005938557442
0.08116666667,0.005815757904
0.0811875,0.005725510418
0.08120833333,0.005589960143
0.08122916667,0.005479648709
0.08125,0.005348935258
0.08127083333,0.005229788367
0.08129166667,0.005126531702
0.0813125,0.005053397268
0.08133333333,0.004981279373
0.08135416667,0.004909953102
0.081375,0.004813477863
0.08139583333,0.004728446249
0.08141666667,0.004627439193
0.0814375,0.004526868928
0.08145833333,0.004457172472
0.08147916667,0.004362164531
0.0815,0.004303287249
0.08152083333,0.004224915523
0.08154166667,0.004139443859
0.0815625,0.004058787599
0.08158333333,0.003946480341
0.08160416667,0.003915927373
0.081625,0.003799473168
0.08164583333,0.003759940853
0.08166666667,0.003619109746
0.0816875,0.003545638174
0.08170833333,0.003466363996
0.08172916667,0.003385410644
0.08175,0.003311399836
0.08177083333,0.00323393289
0.08179166667,0.003204662818
0.0818125,0.003138144733
0.08183333333,0.003052185057
0.08185416667,0.002971760463
0.081875,0.002902129432
0.08189583333,0.002835297491
0.08191666667,0.002768027596
0.0819375,0.002711786423
0.08195833333,0.00264707068
0.08197916667,0.002616288606
0.082,0.002527987352
0.08202083333,0.002479859395
0.08204166667,0.002413539682
0.0820625,0.002367574489
0.08208333333,0.002323952969
0.08210416667,0.002271928824
0.082125,0.002236075699
0.08214583333,0.002194204368
0.08216666667,0.002122012433
0.0821875,0.002068434609
0.08220833333,0.001990325749
0.08222916667,0.001920529059
0.08225,0.001839491772
0.08227083333,0.001788827241
0.08229166667,0.001735143829
0.0823125,0.001690330799
0.08233333333,0.001654851483
0.08235416667,0.001564181526
0.082375,0.001522017061
0.08239583333,0.001446824986
0.08241666667,0.001409610733
0.0824375,0.001302115037
0.08245833333,0.001236060634
0.08247916667,0.001154074329
0.0825,0.001095300307
0.08252083333,0.001060137409
0.08254166667,0.001005943166
0.0825625,0.0009787575109
0.08258333333,0.000923991669
0.08260416667,0.0008576372638
0.082625,0.0007832674892
0.08264583333,0.0007163854898
0.08266666667,0.0006267502322
0.0826875,0.0005466639413
0.08270833333,0.0004741552402
0.08272916667,0.0003925891069
0.08275,0.0003310273169
0.08277083333,0.0002068934555
0.08279166667,0.0001136803912
0.0828125,3.819246922e-05
0.08283333333,-7.413405547e-05
0.08285416667,-0.0001578208175
0.082875,-0.0002568477066
0.08289583333,-0.0003610337153
0.08291666667,-0.0004469815758
0.0829375,-0.0005726984818
0.08295833333,-0.0006668443093
0.08297916667,-0.0007783949259
0.083,-0.0008795796311
0.08302083333,-0.0009654457099
0.08304166667,-0.001084785676
0.0830625,-0.001140174107
0.08308333333,-0.001288372674
0.08310416667,-0.001369204256
0.083125,-0.001499247039
0.08314583333,-0.001589309424
0.08316666667,-0.001686692587
0.0831875,-0.001778174774
0.08320833333,-0.001877836767
0.08322916667,-0.001991638681
0.08325,-0.002074382035
0.08327083333,-0.002184771001
0.08329166667,-0.002227909397
0.0833125,-0.002321848879
0.08333333333,-0.002394354437
0.08335416667,-0.002467367565
0.083375,-0.002591004129
0.08339583333,-0.002644839464
0.08341666667,-0.002789054066
0.0834375,-0.002867543371
0.08345833333,-0.002975764452
0.08347916667,-0.003086849581
0.0835,-0.003157720435
0.08352083333,-0.003281612182
0.08354166667,-0.003343013348
0.0835625,-0.003467942355
0.08358333333,-0.003569867229
0.08360416667,-0.003657100722
0.083625,-0.003753327299
0.08364583333,-0.003840789665
0.08366666667,-0.003924597055
0.0836875,-0.00398620218
0.08370833333,-0.004077577963
0.08372916667,-0.004163670354
0.08375,-0.004237766378
0.08377083333,-0.004342348315
0.08379166667,-0.004382965155
0.0838125,-0.004481145181
0.08383333333,-0.004540500697
0.08385416667,-0.004625522532
0.083875,-0.004695694894
0.08389583333,-0.004752722103
0.08391666667,-0.004842004739
0.0839375,-0.004884873983
0.08395833333,-0.00496428879
0.08397916667,-0.005032705143
0.084,-0.005097760819
0.08402083333,-0.005151518621
0.08404166667,-0.005189545453
0.0840625,-0.005263979081
0.08408333333,-0.005302813835
0.08410416667,-0.005378097761
0.084125,-0.005421999376
0.08414583333,-0.005470321048
0.08416666667,-0.005516243633
0.0841875,-0.005538322031
0.08420833333,-0.005575549323
0.08422916667,-0.005612882785
0.08425,-0.005643968936
0.08427083333,-0.005706458353
0.08429166667,-0.005732087884
0.0843125,-0.005766011309
0.08433333333,-0.005800062325
0.08435416667,-0.00585377682
0.084375,-0.005918933544
0.08439583333,-0.005962268449
0.08441666667,-0.005994993262
0.0844375,-0.006016402505
0.08445833333,-0.006046868395
0.08447916667,-0.006064978428
0.0845,-0.006116141565
0.08452083333,-0.006131706294
0.08454166667,-0.006178515032
0.0845625,-0.006204712205
0.08458333333,-0.006232864223
0.08460416667,-0.006281051785
0.084625,-0.006306712516
0.08464583333,-0.00635532476
0.08466666667,-0.00638191402
0.0846875,-0.006406482775
0.08470833333,-0.006462515797
0.08472916667,-0.006474779453
0.08475,-0.006523409858
0.08477083333,-0.006539369933
0.08479166667,-0.006554168183
0.0848125,-0.006584478077
0.08483333333,-0.006578973029
0.08485416667,-0.006643556524
0.084875,-0.006648879964
0.08489583333,-0.006692945492
0.08491666667,-0.006693429314
0.0849375,-0.006714093499
0.08495833333,-0.00673807133
0.08497916667,-0.006755022798
0.085,-0.006787144579
0.08502083333,-0.006774179172
0.08504166667,-0.006805955432
0.0850625,-0.00679703569
0.08508333333,-0.006821839605
0.08510416667,-0.006828584708
0.085125,-0.00685637258
0.08514583333,-0.006866877899
0.08516666667,-0.006864431314
0.0851875,-0.00689100381
0.08520833333,-0.006915423088
0.08522916667,-0.006925151218
0.08525,-0.006931982934
0.08527083333,-0.006945875939
0.08529166667,-0.00697953254
0.0853125,-0.006992279086
0.08533333333,-0.006994928699
0.08535416667,-0.007020931691
0.085375,-0.007010145579
0.08539583333,-0.007045868784
0.08541666667,-0.007033685688
0.0854375,-0.007039847318
0.08545833333,-0.007061511278
0.08547916667,-0.007098327857
0.0855,-0.007111666724
0.08552083333,-0.007150650956
0.08554166667,-0.007152050268
0.0855625,-0.007180292625
0.08558333333,-0.007191628218
0.08560416667,-0.007177392486
0.085625,-0.007221230306
0.08564583333,-0.007202737499
0.08566666667,-0.007275038864
0.0856875,-0.007248998154
0.08570833333,-0.0072924993
0.08572916667,-0.00728627434
0.08575,-0.007302692626
0.08577083333,-0.007308826316
0.08579166667,-0.007354930975
0.0858125,-0.007382573094
0.08583333333,-0.007427888457
0.08585416667,-0.007434670348
0.085875,-0.007450895384
0.08589583333,-0.00746004004
0.08591666667,-0.007447338663
0.0859375,-0.007452223916
0.08595833333,-0.007476861589
0.08597916667,-0.007497081067
0.086,-0.007544052787
0.08602083333,-0.007549869828
0.08604166667,-0.007571948227
0.0860625,-0.007627818268
0.08608333333,-0.007651520427
0.08610416667,-0.007701978553
0.086125,-0.007722626906
0.08614583333,-0.007752394769
0.08616666667,-0.007802226581
0.0861875,-0.007826285437
0.08620833333,-0.007885198109
0.08622916667,-0.007881218567
0.08625,-0.007911085151
0.08627083333,-0.007927275263
0.08629166667,-0.007951119915
0.0863125,-0.007994296961
0.08633333333,-0.008035578765
0.08635416667,-0.008040340617
0.086375,-0.008094158024
0.08639583333,-0.008121422492
0.08641666667,-0.008146140724
0.0864375,-0.008182260208
0.08645833333,-0.008204455487
0.08647916667,-0.008203141391
0.0865,-0.008250849321
0.08652083333,-0.008244597353
0.08654166667,-0.008320386522
0.0865625,-0.008336239494
0.08658333333,-0.008383229375
0.08660416667,-0.008412035182
0.086625,-0.008464201353
0.08664583333,-0.008521415293
0.08666666667,-0.008524585515
0.0866875,-0.00861166697
0.08670833333,-0.008609898388
0.08672916667,-0.008683529682
0.08675,-0.008710733615
0.08677083333,-0.008732374758
0.08679166667,-0.008798615076
0.0868125,-0.008809466846
0.08683333333,-0.008865688927
0.08685416667,-0.008911389858
0.086875,-0.008924479596
0.08689583333,-0.008970772848
0.08691666667,-0.008967708796
0.0869375,-0.0089975968
0.08695833333,-0.009033051319
0.08697916667,-0.009045518935
0.087,-0.009132722393
0.08702083333,-0.009160941467
0.08704166667,-0.009198549204
0.0870625,-0.009209511802
0.08708333333,-0.009199527092
0.08710416667,-0.009246403351
0.087125,-0.009258839302
0.08714583333,-0.009278313257
0.08716666667,-0.009331050329
0.0871875,-0.009318972006
0.08720833333,-0.009360605851
0.08722916667,-0.009335419163
0.08725,-0.009362136014
0.08727083333,-0.009357264265
0.08729166667,-0.009385009296
0.0873125,-0.009398004971
0.08733333333,-0.009431252256
0.08735416667,-0.009481792338
0.087375,-0.009504743852
0.08739583333,-0.009526485577
0.08741666667,-0.009521406144
0.0874375,-0.009520367719
0.08745833333,-0.009520669468
0.08747916667,-0.009534880519
0.0875,-0.009551164694
0.08752083333,-0.009586334229
0.08754166667,-0.009644618258
0.0875625,-0.009655240923
0.08758333333,-0.009690945968
0.08760416667,-0.009685578756
0.087625,-0.009737318382
0.08764583333,-0.00975940004
0.08766666667,-0.009793424979
0.0876875,-0.009822284803
0.08770833333,-0.009833952412
0.08772916667,-0.009856933728
0.08775,-0.009885692969
0.08777083333,-0.009881976992
0.08779166667,-0.009937814437
0.0878125,-0.009955457412
0.08783333333,-0.01003609411
0.08785416667,-0.0100448681
0.087875,-0.01008823328
0.08789583333,-0.01011275128
0.08791666667,-0.01012006961
0.0879375,-0.01017961465
0.08795833333,-0.01019725762
0.08797916667,-0.01026417688
0.088,-0.01032340713
0.08802083333,-0.01033499558
0.08804166667,-0.0104133822
0.0880625,-0.01041955594
0.08808333333,-0.01049342006
0.08810416667,-0.01054142602
0.088125,-0.01061159372
0.08814583333,-0.01069315337
0.08816666667,-0.01073787268
0.0881875,-0.01080509648
0.08820833333,-0.01084255055
0.08822916667,-0.01090988703
0.08825,-0.01093737688
0.08827083333,-0.01102819201
0.08829166667,-0.01104129385
0.0883125,-0.01111906487
0.08833333333,-0.01114965044
0.08835416667,-0.01120876055
0.088375,-0.01126249041
0.08839583333,-0.01126825158
0.08841666667,-0.01130509842
0.0884375,-0.01132175792
0.08845833333,-0.01138493698
0.08847916667,-0.01141081471
0.0885,-0.01144801825
0.08852083333,-0.01151574031
0.08854166667,-0.0115499422
0.0885625,-0.01161340438
0.08858333333,-0.01164127141
0.08860416667,-0.01170233637
0.088625,-0.01174563728
0.08864583333,-0.01179357991
0.08866666667,-0.01183371712
0.0886875,-0.01187312603
0.08870833333,-0.01191840414
0.08872916667,-0.01196657494
0.08875,-0.01201075409
0.08877083333,-0.01203536056
0.08879166667,-0.01204743423
0.0888125,-0.01204323117
0.08883333333,-0.01209509186
0.08885416667,-0.01210923865
0.088875,-0.01215437241
0.08889583333,-0.01214786898
0.08891666667,-0.01216778345
0.0889375,-0.01216485072
0.08895833333,-0.01217521913
0.08897916667,-0.01220875047
0.089,-0.01223387569
0.08902083333,-0.01226472575
0.08904166667,-0.01229175553
0.0890625,-0.01230526436
0.08908333333,-0.01231856551
0.08910416667,-0.01230961643
0.089125,-0.01232165843
0.08914583333,-0.01234754361
0.08916666667,-0.01236055698
0.0891875,-0.01239593141
0.08920833333,-0.01239000261
0.08922916667,-0.01241839305
0.08925,-0.0124204522
0.08927083333,-0.01243794151
0.08929166667,-0.01245118864
0.0893125,-0.01246277522
0.08933333333,-0.01248198375
0.08935416667,-0.01250151172
