time,data
0,0.2141418457
2.267573696e-05,0.2145996094
4.535147392e-05,0.2150878906
6.802721088e-05,0.2144165039
9.070294785e-05,0.2150268555
0.0001133786848,0.2151184082
0.0001360544218,0.2152404785
0.0001587301587,0.2149963379
0.0001814058957,0.214630127
0.0002040816327,0.2150268555
0.0002267573696,0.2149658203
0.0002494331066,0.2153015137
0.0002721088435,0.2152099609
0.0002947845805,0.2152404785
0.0003174603175,0.2149963379
0.0003401360544,0.2146911621
0.0003628117914,0.2159729004
0.0003854875283,0.2144775391
0.0004081632653,0.215057373
0.0004308390023,0.2154846191
0.0004535147392,0.215057373
0.0004761904762,0.2153015137
0.0004988662132,0.2146911621
0.0005215419501,0.2145690918
0.0005442176871,0.2143249512
0.000566893424,0.2151184082
0.000589569161,0.2147521973
0.000612244898,0.2146606445
0.0006349206349,0.2148132324
0.0006575963719,0.2152099609
0.0006802721088,0.215423584
0.0007029478458,0.2142028809
0.0007256235828,0.2147521973
0.0007482993197,0.2152709961
0.0007709750567,0.2150268555
0.0007936507937,0.2151794434
0.0008163265306,0.2152099609
0.0008390022676,0.2154541016
0.0008616780045,0.2148132324
0.0008843537415,0.215423584
0.0009070294785,0.2154846191
0.0009297052154,0.2154541016
0.0009523809524,0.215057373
0.0009750566893,0.2149047852
0.0009977324263,0.2149963379
0.001020408163,0.2148742676
0.0010430839,0.2147216797
0.001065759637,0.2146606445
0.001088435374,0.2148132324
0.001111111111,0.2151489258
0.001133786848,0.2143554688
0.001156462585,0.2149353027
0.001179138322,0.2153625488
0.001201814059,0.2149047852
0.001224489796,0.2154541016
0.001247165533,0.2149963379
0.00126984127,0.2151184082
0.001292517007,0.2154846191
0.001315192744,0.2155456543
0.001337868481,0.214630127
0.001360544218,0.2160949707
0.001383219955,0.2160644531
0.001405895692,0.2149963379
0.001428571429,0.215637207
0.001451247166,0.2150268555
0.001473922902,0.2149658203
0.001496598639,0.2142944336
0.001519274376,0.2142944336
0.001541950113,0.2156066895
0.00156462585,0.2151489258
0.001587301587,0.2143554688
0.001609977324,0.2144165039
0.001632653061,0.2145385742
0.001655328798,0.2151794434
0.001678004535,0.2151489258
0.001700680272,0.2153625488
0.001723356009,0.2148742676
0.001746031746,0.2153625488
0.001768707483,0.2149047852
0.00179138322,0.2153320312
0.001814058957,0.2151489258
0.001836734694,0.2153625488
0.001859410431,0.2158508301
0.001882086168,0.2151489258
0.001904761905,0.2153320312
0.001927437642,0.2152404785
0.001950113379,0.2148742676
0.001972789116,0.2148742676
0.001995464853,0.2153625488
0.00201814059,0.2152404785
0.002040816327,0.2151184082
0.002063492063,0.215057373
0.0020861678,0.2148742676
0.002108843537,0.2147827148
0.002131519274,0.2145690918
0.002154195011,0.215057373
0.002176870748,0.2148742676
0.002199546485,0.2149353027
0.002222222222,0.2150268555
0.002244897959,0.2146911621
0.002267573696,0.2150878906
0.002290249433,0.2151184082
0.00231292517,0.2146606445
0.002335600907,0.2151184082
0.002358276644,0.2161254883
0.002380952381,0.2159729004
0.002403628118,0.2148742676
0.002426303855,0.2155151367
0.002448979592,0.2151184082
0.002471655329,0.2149353027
0.002494331066,0.2140197754
0.002517006803,0.2145996094
0.00253968254,0.2149353027
0.002562358277,0.2148742676
0.002585034014,0.215057373
0.002607709751,0.2152404785
0.002630385488,0.2147521973
0.002653061224,0.2153015137
0.002675736961,0.2151184082
0.002698412698,0.2149047852
0.002721088435,0.2151489258
0.002743764172,0.2150878906
0.002766439909,0.2151489258
0.002789115646,0.2146911621
0.002811791383,0.2147216797
0.00283446712,0.2153320312
0.002857142857,0.2152709961
0.002879818594,0.2148742676
0.002902494331,0.2151184082
0.002925170068,0.2145080566
0.002947845805,0.215057373
0.002970521542,0.2152404785
0.002993197279,0.21484375
0.003015873016,0.2153625488
0.003038548753,0.2148742676
0.00306122449,0.215057373
0.003083900227,0.215057373
0.003106575964,0.2154541016
0.003129251701,0.2156066895
0.003151927438,0.2149658203
0.003174603175,0.2149047852
0.003197278912,0.2155456543
0.003219954649,0.2152099609
0.003242630385,0.2144470215
0.003265306122,0.2152404785
0.003287981859,0.2150268555
0.003310657596,0.2156066895
0.003333333333,0.2153930664
0.00335600907,0.2157897949
0.003378684807,0.2159423828
0.003401360544,0.2151184082
0.003424036281,0.215057373
0.003446712018,0.2152404785
0.003469387755,0.2153320312
0.003492063492,0.2148742676
0.003514739229,0.2147216797
0.003537414966,0.2153930664
0.003560090703,0.2153015137
0.00358276644,0.2152404785
0.003605442177,0.2149047852
0.003628117914,0.21484375
0.003650793651,0.2155456543
0.003673469388,0.2158203125
0.003696145125,0.2155151367
0.003718820862,0.2154846191
0.003741496599,0.21484375
0.003764172336,0.2151489258
0.003786848073,0.2157287598
0.00380952381,0.215637207
0.003832199546,0.2153625488
0.003854875283,0.2151489258
0.00387755102,0.215423584
0.003900226757,0.2152404785
0.003922902494,0.2150268555
0.003945578231,0.2150878906
0.003968253968,0.2153320312
0.003990929705,0.2150878906
0.004013605442,0.2151184082
0.004036281179,0.215637207
0.004058956916,0.2150878906
0.004081632653,0.2153625488
0.00410430839,0.2147827148
0.004126984127,0.2149963379
0.004149659864,0.2150878906
0.004172335601,0.2149963379
0.004195011338,0.215423584
0.004217687075,0.2154846191
0.004240362812,0.2153930664
0.004263038549,0.2153930664
0.004285714286,0.2148132324
0.004308390023,0.2148132324
0.00433106576,0.2157897949
0.004353741497,0.2162475586
0.004376417234,0.2159729004
0.004399092971,0.2152404785
0.004421768707,0.2153015137
0.004444444444,0.215423584
0.004467120181,0.2155761719
0.004489795918,0.2149353027
0.004512471655,0.2146606445
0.004535147392,0.2145996094
0.004557823129,0.2149963379
0.004580498866,0.2155456543
0.004603174603,0.2152404785
0.00462585034,0.2157897949
0.004648526077,0.2155456543
0.004671201814,0.2150268555
0.004693877551,0.2148742676
0.004716553288,0.2147521973
0.004739229025,0.2149963379
0.004761904762,0.2149963379
0.004784580499,0.2148742676
0.004807256236,0.2153015137
0.004829931973,0.2153625488
0.00485260771,0.2149047852
0.004875283447,0.2151489258
0.004897959184,0.2155761719
0.004920634921,0.2155761719
0.004943310658,0.2153015137
0.004965986395,0.2148742676
0.004988662132,0.2150268555
0.005011337868,0.2147827148
0.005034013605,0.2151794434
0.005056689342,0.215057373
0.005079365079,0.2150878906
0.005102040816,0.2151794434
0.005124716553,0.2149658203
0.00514739229,0.2147521973
0.005170068027,0.2150878906
0.005192743764,0.2149047852
0.005215419501,0.2151794434
0.005238095238,0.2151489258
0.005260770975,0.2149353027
0.005283446712,0.2149963379
0.005306122449,0.215057373
0.005328798186,0.2149353027
0.005351473923,0.215423584
0.00537414966,0.2157592773
0.005396825397,0.2153015137
0.005419501134,0.2154846191
0.005442176871,0.2155151367
0.005464852608,0.2150268555
0.005487528345,0.2144775391
0.005510204082,0.2151489258
0.005532879819,0.2148132324
0.005555555556,0.2156066895
0.005578231293,0.2154846191
0.005600907029,0.2151489258
0.005623582766,0.2156982422
0.005646258503,0.2154541016
0.00566893424,0.2147521973
0.005691609977,0.2147827148
0.005714285714,0.2150878906
0.005736961451,0.215423584
0.005759637188,0.2151489258
0.005782312925,0.2149658203
0.005804988662,0.2156066895
0.005827664399,0.2153015137
0.005850340136,0.2153015137
0.005873015873,0.2149047852
0.00589569161,0.2153320312
0.005918367347,0.2156677246
0.005941043084,0.2152709961
0.005963718821,0.2149047852
0.005986394558,0.21484375
0.006009070295,0.2151489258
0.006031746032,0.2151794434
0.006054421769,0.2150878906
0.006077097506,0.2152099609
0.006099773243,0.215423584
0.00612244898,0.2153930664
0.006145124717,0.2156677246
0.006167800454,0.2156982422
0.00619047619,0.2148132324
0.006213151927,0.2147216797
0.006235827664,0.2147521973
0.006258503401,0.2149658203
0.006281179138,0.2149047852
0.006303854875,0.214630127
0.006326530612,0.2141418457
0.006349206349,0.2155151367
0.006371882086,0.2150268555
0.006394557823,0.2149047852
0.00641723356,0.2149963379
0.006439909297,0.2149047852
0.006462585034,0.2147521973
0.006485260771,0.2138671875
0.006507936508,0.2145996094
0.006530612245,0.2151184082
0.006553287982,0.2149353027
0.006575963719,0.2149658203
0.006598639456,0.2148132324
0.006621315193,0.2144470215
0.00664399093,0.2151794434
0.006666666667,0.2149963379
0.006689342404,0.2147521973
0.006712018141,0.2148742676
0.006734693878,0.2145385742
0.006757369615,0.2148132324
0.006780045351,0.2151184082
0.006802721088,0.215423584
0.006825396825,0.2149047852
0.006848072562,0.2149353027
0.006870748299,0.2152099609
0.006893424036,0.2151184082
0.006916099773,0.2150268555
0.00693877551,0.2153625488
0.006961451247,0.2152404785
0.006984126984,0.2149353027
0.007006802721,0.2152404785
0.007029478458,0.2147521973
0.007052154195,0.2147216797
0.007074829932,0.2149963379
0.007097505669,0.2151794434
0.007120181406,0.2149047852
0.007142857143,0.2151184082
0.00716553288,0.2153625488
0.007188208617,0.215423584
0.007210884354,0.2150878906
0.007233560091,0.21484375
0.007256235828,0.2156066895
0.007278911565,0.2155151367
0.007301587302,0.2149353027
0.007324263039,0.2150878906
0.007346938776,0.2155456543
0.007369614512,0.2159729004
0.007392290249,0.2151489258
0.007414965986,0.2150878906
0.007437641723,0.2148132324
0.00746031746,0.2147521973
0.007482993197,0.215057373
0.007505668934,0.2146911621
0.007528344671,0.215057373
0.007551020408,0.2151489258
0.007573696145,0.2153015137
0.007596371882,0.2153930664
0.007619047619,0.2149963379
0.007641723356,0.2154846191
0.007664399093,0.2149047852
0.00768707483,0.2149353027
0.007709750567,0.215423584
0.007732426304,0.2151184082
0.007755102041,0.2151794434
0.007777777778,0.2154846191
0.007800453515,0.2149658203
0.007823129252,0.2147827148
0.007845804989,0.2151794434
0.007868480726,0.2153015137
0.007891156463,0.2155151367
0.0079138322,0.2153625488
0.007936507937,0.215637207
0.007959183673,0.2156677246
0.00798185941,0.2149658203
0.008004535147,0.2143554688
0.008027210884,0.2144470215
0.008049886621,0.2152709961
0.008072562358,0.2147827148
0.008095238095,0.2144775391
0.008117913832,0.2149658203
0.008140589569,0.2153015137
0.008163265306,0.2157897949
0.008185941043,0.2145690918
0.00820861678,0.2150878906
0.008231292517,0.2152404785
0.008253968254,0.2152709961
0.008276643991,0.2160339355
0.008299319728,0.215423584
0.008321995465,0.215637207
0.008344671202,0.2160949707
0.008367346939,0.2153320312
0.008390022676,0.21484375
0.008412698413,0.2157592773
0.00843537415,0.2153015137
0.008458049887,0.2147521973
0.008480725624,0.21484375
0.008503401361,0.2148132324
0.008526077098,0.2152404785
0.008548752834,0.2153930664
0.008571428571,0.2149047852
0.008594104308,0.2148742676
0.008616780045,0.214630127
0.008639455782,0.2148132324
0.008662131519,0.2153015137
0.008684807256,0.2147216797
0.008707482993,0.215423584
0.00873015873,0.215637207
0.008752834467,0.2151794434
0.008775510204,0.2158203125
0.008798185941,0.2158813477
0.008820861678,0.2153625488
0.008843537415,0.2151489258
0.008866213152,0.2147216797
0.008888888889,0.2148132324
0.008911564626,0.2154541016
0.008934240363,0.2152099609
0.0089569161,0.216003418
0.008979591837,0.2153015137
0.009002267574,0.2144470215
0.009024943311,0.2151489258
0.009047619048,0.2146911621
0.009070294785,0.215057373
0.009092970522,0.2155456543
0.009115646259,0.2146911621
0.009138321995,0.2151184082
0.009160997732,0.2150268555
0.009183673469,0.2147827148
0.009206349206,0.2148132324
0.009229024943,0.2143249512
0.00925170068,0.215423584
0.009274376417,0.2152099609
0.009297052154,0.2155151367
0.009319727891,0.2151489258
0.009342403628,0.215057373
0.009365079365,0.2154846191
0.009387755102,0.2149353027
0.009410430839,0.2153625488
0.009433106576,0.2149047852
0.009455782313,0.2149353027
0.00947845805,0.215423584
0.009501133787,0.2144470215
0.009523809524,0.2147827148
0.009546485261,0.2148132324
0.009569160998,0.2148742676
0.009591836735,0.2159118652
0.009614512472,0.2151794434
0.009637188209,0.2151794434
0.009659863946,0.2146911621
0.009682539683,0.2148742676
0.00970521542,0.2148742676
0.009727891156,0.2146911621
0.009750566893,0.2149047852
0.00977324263,0.2152404785
0.009795918367,0.2153015137
0.009818594104,0.2148132324
0.009841269841,0.2149353027
0.009863945578,0.2151184082
0.009886621315,0.2153625488
0.009909297052,0.2147216797
0.009931972789,0.2142944336
0.009954648526,0.2153625488
0.009977324263,0.2153320312
0.01,0.2147521973
0.01002267574,0.2152709961
0.01004535147,0.2149963379
0.01006802721,0.215057373
0.01009070295,0.2149353027
0.01011337868,0.2149963379
0.01013605442,0.2150268555
0.01015873016,0.215423584
0.0101814059,0.2155151367
0.01020408163,0.2153320312
0.01022675737,0.2152709961
0.01024943311,0.2147827148
0.01027210884,0.215057373
0.01029478458,0.2156982422
0.01031746032,0.2151794434
0.01034013605,0.2147521973
0.01036281179,0.2158508301
0.01038548753,0.2152099609
0.01040816327,0.2147827148
0.010430839,0.215057373
0.01045351474,0.2155151367
0.01047619048,0.2150268555
0.01049886621,0.2147521973
0.01052154195,0.2150878906
0.01054421769,0.2153930664
0.01056689342,0.2149658203
0.01058956916,0.2147827148
0.0106122449,0.2155761719
0.01063492063,0.2149047852
0.01065759637,0.2153930664
0.01068027211,0.2147521973
0.01070294785,0.2149963379
0.01072562358,0.2157592773
0.01074829932,0.2144165039
0.01077097506,0.2148742676
0.01079365079,0.2149047852
0.01081632653,0.2150268555
0.01083900227,0.2148742676
0.010861678,0.2151794434
0.01088435374,0.2158813477
0.01090702948,0.2151184082
0.01092970522,0.2149658203
0.01095238095,0.2144165039
0.01097505669,0.2149658203
0.01099773243,0.2151184082
0.01102040816,0.2151489258
0.0110430839,0.2143859863
0.01106575964,0.2149047852
0.01108843537,0.2156066895
0.01111111111,0.215057373
0.01113378685,0.2147216797
0.01115646259,0.2150268555
0.01117913832,0.2149353027
0.01120181406,0.2148132324
0.0112244898,0.2149658203
0.01124716553,0.2144470215
0.01126984127,0.2152404785
0.01129251701,0.2160339355
0.01131519274,0.2150878906
0.01133786848,0.2156066895
0.01136054422,0.2156982422
0.01138321995,0.2149353027
0.01140589569,0.2147521973
0.01142857143,0.2142333984
0.01145124717,0.21484375
0.0114739229,0.2145080566
0.01149659864,0.2145080566
0.01151927438,0.2150268555
0.01154195011,0.21484375
0.01156462585,0.215637207
0.01158730159,0.2149353027
0.01160997732,0.2149353027
0.01163265306,0.2145996094
0.0116553288,0.2142333984
0.01167800454,0.2152709961
0.01170068027,0.2150268555
0.01172335601,0.2141113281
0.01174603175,0.2147521973
0.01176870748,0.214630127
0.01179138322,0.2139587402
0.01181405896,0.2153015137
0.01183673469,0.21484375
0.01185941043,0.2145080566
0.01188208617,0.2158203125
0.0119047619,0.2153015137
0.01192743764,0.2149353027
0.01195011338,0.2151184082
0.01197278912,0.2151794434
0.01199546485,0.2155151367
0.01201814059,0.2146911621
0.01204081633,0.2147521973
0.01206349206,0.2153625488
0.0120861678,0.2147521973
0.01210884354,0.2147827148
0.01213151927,0.2147521973
0.01215419501,0.2147827148
0.01217687075,0.21484375
0.01219954649,0.2153015137
0.01222222222,0.2146911621
0.01224489796,0.2147521973
0.0122675737,0.2147216797
0.01229024943,0.2150878906
0.01231292517,0.2152099609
0.01233560091,0.2151184082
0.01235827664,0.2155761719
0.01238095238,0.215423584
0.01240362812,0.2151794434
0.01242630385,0.2156066895
0.01244897959,0.2152709961
0.01247165533,0.2148742676
0.01249433107,0.2146606445
0.0125170068,0.2149353027
0.01253968254,0.2152099609
0.01256235828,0.2153015137
0.01258503401,0.2151794434
0.01260770975,0.2152404785
0.01263038549,0.2148742676
0.01265306122,0.2147521973
0.01267573696,0.2151794434
0.0126984127,0.2151184082
0.01272108844,0.2151794434
0.01274376417,0.2149658203
0.01276643991,0.2144470215
0.01278911565,0.2142944336
0.01281179138,0.21484375
0.01283446712,0.21484375
0.01285714286,0.2150268555
0.01287981859,0.2148742676
0.01290249433,0.215423584
0.01292517007,0.2153625488
0.0129478458,0.215423584
0.01297052154,0.2153320312
0.01299319728,0.2144165039
0.01301587302,0.2149658203
0.01303854875,0.2149963379
0.01306122449,0.2148742676
0.01308390023,0.2152709961
0.01310657596,0.2155151367
0.0131292517,0.2153625488
0.01315192744,0.215057373
0.01317460317,0.2145385742
0.01319727891,0.2145996094
0.01321995465,0.2153015137
0.01324263039,0.214630127
0.01326530612,0.2144775391
0.01328798186,0.2149963379
0.0133106576,0.214630127
0.01333333333,0.2151489258
0.01335600907,0.2153625488
0.01337868481,0.2153015137
0.01340136054,0.2151794434
0.01342403628,0.2153625488
0.01344671202,0.2146606445
0.01346938776,0.2151794434
0.01349206349,0.2151489258
0.01351473923,0.21484375
0.01353741497,0.2149963379
0.0135600907,0.2153320312
0.01358276644,0.2151794434
0.01360544218,0.2155761719
0.01362811791,0.2153015137
0.01365079365,0.2153625488
0.01367346939,0.2147521973
0.01369614512,0.21484375
0.01371882086,0.2155761719
0.0137414966,0.2156066895
0.01376417234,0.215637207
0.01378684807,0.2159118652
0.01380952381,0.2153015137
0.01383219955,0.21484375
0.01385487528,0.2149353027
0.01387755102,0.2153625488
0.01390022676,0.2155761719
0.01392290249,0.2154846191
0.01394557823,0.2151794434
0.01396825397,0.2156982422
0.01399092971,0.2154846191
0.01401360544,0.2151489258
0.01403628118,0.2152099609
0.01405895692,0.2153320312
0.01408163265,0.2152404785
0.01410430839,0.2149963379
0.01412698413,0.2152404785
0.01414965986,0.2157897949
0.0141723356,0.2154846191
0.01419501134,0.2150268555
0.01421768707,0.2154541016
0.01424036281,0.2151489258
0.01426303855,0.2152709961
0.01428571429,0.2155151367
0.01430839002,0.2157897949
0.01433106576,0.2153625488
0.0143537415,0.2156677246
0.01437641723,0.2161560059
0.01439909297,0.2154846191
0.01442176871,0.2147521973
0.01444444444,0.2147827148
0.01446712018,0.2147521973
0.01448979592,0.2139282227
0.01451247166,0.2149353027
0.01453514739,0.21484375
0.01455782313,0.2146606445
0.01458049887,0.2153930664
0.0146031746,0.2152404785
0.01462585034,0.2150878906
0.01464852608,0.2149963379
0.01467120181,0.2153320312
0.01469387755,0.2155151367
0.01471655329,0.2149963379
0.01473922902,0.2153320312
0.01476190476,0.2152404785
0.0147845805,0.215057373
0.01480725624,0.2152404785
0.01482993197,0.2155151367
0.01485260771,0.2151489258
0.01487528345,0.2149353027
0.01489795918,0.2151489258
0.01492063492,0.2152709961
0.01494331066,0.2156066895
0.01496598639,0.2153320312
0.01498866213,0.2149658203
0.01501133787,0.2143859863
0.01503401361,0.2145996094
0.01505668934,0.2148132324
0.01507936508,0.2151184082
0.01510204082,0.2154541016
0.01512471655,0.2149353027
0.01514739229,0.2149963379
0.01517006803,0.2148742676
0.01519274376,0.2148132324
0.0152154195,0.2147827148
0.01523809524,0.2149047852
0.01526077098,0.2151184082
0.01528344671,0.2147216797
0.01530612245,0.2150268555
0.01532879819,0.2144775391
0.01535147392,0.2155151367
0.01537414966,0.2151489258
0.0153968254,0.2152709961
0.01541950113,0.2150268555
0.01544217687,0.2152099609
0.01546485261,0.2152709961
0.01548752834,0.2139282227
0.01551020408,0.2148742676
0.01553287982,0.2155456543
0.01555555556,0.2159118652
0.01557823129,0.2154541016
0.01560090703,0.2155456543
0.01562358277,0.2151184082
0.0156462585,0.2152099609
0.01566893424,0.2150878906
0.01569160998,0.2153320312
0.01571428571,0.2152709961
0.01573696145,0.2152099609
0.01575963719,0.2153625488
0.01578231293,0.2155151367
0.01580498866,0.2156677246
0.0158276644,0.2153625488
0.01585034014,0.2151794434
0.01587301587,0.2160949707
0.01589569161,0.2158508301
0.01591836735,0.2147216797
0.01594104308,0.2157897949
0.01596371882,0.2149353027
0.01598639456,0.2155761719
0.01600907029,0.2167053223
0.01603174603,0.2153625488
0.01605442177,0.2155761719
0.01607709751,0.2154541016
0.01609977324,0.2154846191
0.01612244898,0.2156982422
0.01614512472,0.2152709961
0.01616780045,0.2154541016
0.01619047619,0.2153015137
0.01621315193,0.215057373
0.01623582766,0.2157897949
0.0162585034,0.215057373
0.01628117914,0.2144775391
0.01630385488,0.2149963379
0.01632653061,0.2151489258
0.01634920635,0.2151794434
0.01637188209,0.2156982422
0.01639455782,0.2155456543
0.01641723356,0.2145385742
0.0164399093,0.21484375
0.01646258503,0.2150878906
0.01648526077,0.2137145996
0.01650793651,0.2143554688
0.01653061224,0.214263916
0.01655328798,0.2148132324
0.01657596372,0.2162475586
0.01659863946,0.2152404785
0.01662131519,0.2147827148
0.01664399093,0.2153015137
0.01666666667,0.2146911621
0.0166893424,0.2152099609
0.01671201814,0.2150878906
0.01673469388,0.21484375
0.01675736961,0.2152709961
0.01678004535,0.2155761719
0.01680272109,0.2151489258
0.01682539683,0.2142028809
0.01684807256,0.2149963379
0.0168707483,0.2151184082
0.01689342404,0.2149963379
0.01691609977,0.2149963379
0.01693877551,0.2148132324
0.01696145125,0.2151184082
0.01698412698,0.2154846191
0.01700680272,0.2147216797
0.01702947846,0.2148132324
0.0170521542,0.2153015137
0.01707482993,0.215423584
0.01709750567,0.2150268555
0.01712018141,0.2146606445
0.01714285714,0.2149658203
0.01716553288,0.2148742676
0.01718820862,0.2147827148
0.01721088435,0.2150878906
0.01723356009,0.2149047852
0.01725623583,0.215057373
0.01727891156,0.2147827148
0.0173015873,0.21484375
0.01732426304,0.2153625488
0.01734693878,0.215637207
0.01736961451,0.2155151367
0.01739229025,0.2146606445
0.01741496599,0.2149658203
0.01743764172,0.2155151367
0.01746031746,0.215423584
0.0174829932,0.2139892578
0.01750566893,0.2140197754
0.01752834467,0.2155151367
0.01755102041,0.2156066895
0.01757369615,0.2151794434
0.01759637188,0.21484375
0.01761904762,0.2156982422
0.01764172336,0.2149047852
0.01766439909,0.2146911621
0.01768707483,0.2157897949
0.01770975057,0.2158203125
0.0177324263,0.2152099609
0.01775510204,0.2149353027
0.01777777778,0.2144470215
0.01780045351,0.2149047852
0.01782312925,0.2152404785
0.01784580499,0.2148132324
0.01786848073,0.2151184082
0.01789115646,0.2157287598
0.0179138322,0.2154846191
0.01793650794,0.2149963379
0.01795918367,0.215423584
0.01798185941,0.2148742676
0.01800453515,0.2150268555
0.01802721088,0.2145385742
0.01804988662,0.2141723633
0.01807256236,0.2149658203
0.0180952381,0.215423584
0.01811791383,0.2156677246
0.01814058957,0.2144165039
0.01816326531,0.2145690918
0.01818594104,0.2153320312
0.01820861678,0.2151184082
0.01823129252,0.2149047852
0.01825396825,0.2151489258
0.01827664399,0.2153320312
0.01829931973,0.2151794434
0.01832199546,0.2151794434
0.0183446712,0.2155456543
0.01836734694,0.2161254883
0.01839002268,0.2152404785
0.01841269841,0.214263916
0.01843537415,0.2145385742
0.01845804989,0.2153625488
0.01848072562,0.2144470215
0.01850340136,0.2143554688
0.0185260771,0.2152404785
0.01854875283,0.214630127
0.01857142857,0.2152709961
0.01859410431,0.2153320312
0.01861678005,0.2147521973
0.01863945578,0.2149353027
0.01866213152,0.21484375
0.01868480726,0.2151184082
0.01870748299,0.2149047852
0.01873015873,0.21484375
0.01875283447,0.2149963379
0.0187755102,0.2150878906
0.01879818594,0.2151489258
0.01882086168,0.2149658203
0.01884353741,0.2155761719
0.01886621315,0.2152099609
0.01888888889,0.2153320312
0.01891156463,0.2150268555
0.01893424036,0.2147216797
0.0189569161,0.2148132324
0.01897959184,0.2150878906
0.01900226757,0.2146606445
0.01902494331,0.2149963379
0.01904761905,0.2151489258
0.01907029478,0.2147521973
0.01909297052,0.2149963379
0.01911564626,0.2149963379
0.019138322,0.2149353027
0.01916099773,0.2148742676
0.01918367347,0.2154846191
0.01920634921,0.2147521973
0.01922902494,0.2149047852
0.01925170068,0.2143554688
0.01927437642,0.2149963379
0.01929705215,0.2152099609
0.01931972789,0.2149963379
0.01934240363,0.2148132324
0.01936507937,0.2158813477
0.0193877551,0.2150268555
0.01941043084,0.2141723633
0.01943310658,0.2146606445
0.01945578231,0.2144775391
0.01947845805,0.2130737305
0.01950113379,0.2143249512
0.01952380952,0.2156066895
0.01954648526,0.2143249512
0.019569161,0.2153625488
0.01959183673,0.2153625488
0.01961451247,0.2149353027
0.01963718821,0.2149658203
0.01965986395,0.2150268555
0.01968253968,0.2150878906
0.01970521542,0.2152099609
0.01972789116,0.2152099609
0.01975056689,0.2152099609
0.01977324263,0.2145690918
0.01979591837,0.2152099609
0.0198185941,0.2151489258
0.01984126984,0.2151794434
0.01986394558,0.2149658203
0.01988662132,0.2151794434
0.01990929705,0.2155456543
0.01993197279,0.2153320312
0.01995464853,0.2154541016
0.01997732426,0.2154541016
0.02,0.2154541016
0.02002267574,0.2150268555
0.02004535147,0.2156677246
0.02006802721,0.2152099609
0.02009070295,0.2151184082
0.02011337868,0.2148132324
0.02013605442,0.2150878906
0.02015873016,0.2153625488
0.0201814059,0.2149047852
0.02020408163,0.2149963379
0.02022675737,0.2151794434
0.02024943311,0.2153320312
0.02027210884,0.2153930664
0.02029478458,0.2147216797
0.02031746032,0.2143859863
0.02034013605,0.215057373
0.02036281179,0.2156982422
0.02038548753,0.2153930664
0.02040816327,0.2153320312
0.020430839,0.2147216797
0.02045351474,0.21484375
0.02047619048,0.214050293
0.02049886621,0.2139587402
0.02052154195,0.2147521973
0.02054421769,0.2153625488
0.02056689342,0.2153320312
0.02058956916,0.2149963379
0.0206122449,0.2151489258
0.02063492063,0.2149658203
0.02065759637,0.2153625488
0.02068027211,0.2149353027
0.02070294785,0.2152099609
0.02072562358,0.2144775391
0.02074829932,0.2146606445
0.02077097506,0.2149963379
0.02079365079,0.2141723633
0.02081632653,0.2151794434
0.02083900227,0.2157897949
0.020861678,0.2155456543
0.02088435374,0.2151184082
0.02090702948,0.2147216797
0.02092970522,0.2151184082
0.02095238095,0.2151794434
0.02097505669,0.2148132324
0.02099773243,0.2148742676
0.02102040816,0.2148132324
0.0210430839,0.2152709961
0.02106575964,0.2151794434
0.02108843537,0.2150878906
0.02111111111,0.2151184082
0.02113378685,0.2150878906
0.02115646259,0.2152099609
0.02117913832,0.2152099609
0.02120181406,0.2152709961
0.0212244898,0.2155151367
0.02124716553,0.2154846191
0.02126984127,0.2148132324
0.02129251701,0.2153930664
0.02131519274,0.2149963379
0.02133786848,0.2149658203
0.02136054422,0.2157897949
0.02138321995,0.2144775391
0.02140589569,0.215057373
0.02142857143,0.2148132324
0.02145124717,0.2143554688
0.0214739229,0.2143249512
0.02149659864,0.214050293
0.02151927438,0.2143249512
0.02154195011,0.21484375
0.02156462585,0.2150878906
0.02158730159,0.215637207
0.02160997732,0.2149963379
0.02163265306,0.2149353027
0.0216553288,0.2153930664
0.02167800454,0.2153930664
0.02170068027,0.2149353027
0.02172335601,0.2142944336
0.02174603175,0.2143249512
0.02176870748,0.2149047852
0.02179138322,0.2153015137
0.02181405896,0.215637207
0.02183673469,0.2152709961
0.02185941043,0.2147216797
0.02188208617,0.2147521973
0.0219047619,0.214630127
0.02192743764,0.2147216797
0.02195011338,0.2151794434
0.02197278912,0.214630127
0.02199546485,0.2152099609
0.02201814059,0.2149963379
0.02204081633,0.2143249512
0.02206349206,0.2151184082
0.0220861678,0.2149658203
0.02210884354,0.2147216797
0.02213151927,0.2153320312
0.02215419501,0.2145385742
0.02217687075,0.2145080566
0.02219954649,0.2147827148
0.02222222222,0.2147216797
0.02224489796,0.21484375
0.0222675737,0.215057373
0.02229024943,0.215057373
0.02231292517,0.2151184082
0.02233560091,0.2152709961
0.02235827664,0.2155456543
0.02238095238,0.2155151367
0.02240362812,0.2148132324
0.02242630385,0.2149353027
0.02244897959,0.2148132324
0.02247165533,0.2145080566
0.02249433107,0.2141113281
0.0225170068,0.2153930664
0.02253968254,0.2152404785
0.02256235828,0.2147521973
0.02258503401,0.2152099609
0.02260770975,0.2152099609
0.02263038549,0.2152404785
0.02265306122,0.2149963379
0.02267573696,0.2157897949
0.0226984127,0.2155456543
0.02272108844,0.2153320312
0.02274376417,0.2153015137
0.02276643991,0.2149963379
0.02278911565,0.2150878906
0.02281179138,0.2147216797
0.02283446712,0.2150878906
0.02285714286,0.2158813477
0.02287981859,0.2152099609
0.02290249433,0.2144165039
0.02292517007,0.2155761719
0.0229478458,0.2156066895
0.02297052154,0.2153015137
0.02299319728,0.2154846191
0.02301587302,0.2148742676
0.02303854875,0.2145385742
0.02306122449,0.2147827148
0.02308390023,0.2149353027
0.02310657596,0.2146911621
0.0231292517,0.2146606445
0.02315192744,0.2152099609
0.02317460317,0.2149047852
0.02319727891,0.2148742676
0.02321995465,0.2154846191
0.02324263039,0.2152404785
0.02326530612,0.2151794434
0.02328798186,0.2154846191
0.0233106576,0.2150878906
0.02333333333,0.2148132324
0.02335600907,0.2152099609
0.02337868481,0.2153930664
0.02340136054,0.2156066895
0.02342403628,0.2151794434
0.02344671202,0.2143859863
0.02346938776,0.2149353027
0.02349206349,0.2147521973
0.02351473923,0.2149963379
0.02353741497,0.2150878906
0.0235600907,0.21484375
0.02358276644,0.2147216797
0.02360544218,0.2154541016
0.02362811791,0.2149353027
0.02365079365,0.2146911621
0.02367346939,0.2147216797
0.02369614512,0.21484375
0.02371882086,0.2151184082
0.0237414966,0.2149658203
0.02376417234,0.2153625488
0.02378684807,0.2149658203
0.02380952381,0.2152099609
0.02383219955,0.2147521973
0.02385487528,0.214630127
0.02387755102,0.2150878906
0.02390022676,0.2152709961
0.02392290249,0.2147521973
0.02394557823,0.2151794434
0.02396825397,0.2156677246
0.02399092971,0.2147216797
0.02401360544,0.2152099609
0.02403628118,0.21484375
0.02405895692,0.2145385742
0.02408163265,0.2156982422
0.02410430839,0.2153625488
0.02412698413,0.2155456543
0.02414965986,0.2156066895
0.0241723356,0.2145690918
0.02419501134,0.2149963379
0.02421768707,0.2151184082
0.02424036281,0.2149963379
0.02426303855,0.2149353027
0.02428571429,0.2151489258
0.02430839002,0.2151489258
0.02433106576,0.2152709961
0.0243537415,0.2156677246
0.02437641723,0.2156066895
0.02439909297,0.2146911621
0.02442176871,0.2145690918
0.02444444444,0.2149047852
0.02446712018,0.2145690918
0.02448979592,0.2150878906
0.02451247166,0.2148742676
0.02453514739,0.2157287598
0.02455782313,0.2159118652
0.02458049887,0.2153320312
0.0246031746,0.215637207
0.02462585034,0.215423584
0.02464852608,0.2153320312
0.02467120181,0.2155151367
0.02469387755,0.215637207
0.02471655329,0.2152709961
0.02473922902,0.2149353027
0.02476190476,0.2149353027
0.0247845805,0.2163391113
0.02480725624,0.2153930664
0.02482993197,0.2149658203
0.02485260771,0.2150268555
0.02487528345,0.2155151367
0.02489795918,0.215423584
0.02492063492,0.2149353027
0.02494331066,0.2156677246
0.02496598639,0.2149658203
0.02498866213,0.2152709961
0.02501133787,0.2153320312
0.02503401361,0.2152709961
0.02505668934,0.2158203125
0.02507936508,0.2152404785
0.02510204082,0.2146606445
0.02512471655,0.215057373
0.02514739229,0.2153625488
0.02517006803,0.2157592773
0.02519274376,0.2161865234
0.0252154195,0.2152709961
0.02523809524,0.2144775391
0.02526077098,0.21484375
0.02528344671,0.214630127
0.02530612245,0.2149353027
0.02532879819,0.2151184082
0.02535147392,0.215637207
0.02537414966,0.2157287598
0.0253968254,0.2155761719
0.02541950113,0.2154541016
0.02544217687,0.215057373
0.02546485261,0.214630127
0.02548752834,0.2150878906
0.02551020408,0.2148742676
0.02553287982,0.2151184082
0.02555555556,0.2155456543
0.02557823129,0.2152404785
0.02560090703,0.2153930664
0.02562358277,0.2149353027
0.0256462585,0.21484375
0.02566893424,0.2153625488
0.02569160998,0.2155456543
0.02571428571,0.2161254883
0.02573696145,0.2155151367
0.02575963719,0.2152099609
0.02578231293,0.2151489258
0.02580498866,0.215057373
0.0258276644,0.2153930664
0.02585034014,0.2152404785
0.02587301587,0.2158508301
0.02589569161,0.2155151367
0.02591836735,0.2157897949
0.02594104308,0.2148742676
0.02596371882,0.21484375
0.02598639456,0.2149658203
0.02600907029,0.2147827148
0.02603174603,0.2146606445
0.02605442177,0.2151794434
0.02607709751,0.2149963379
0.02609977324,0.2151184082
0.02612244898,0.2155456543
0.02614512472,0.2153625488
0.02616780045,0.2153625488
0.02619047619,0.2147521973
0.02621315193,0.2151794434
0.02623582766,0.2151794434
0.0262585034,0.2146911621
0.02628117914,0.214630127
0.02630385488,0.214630127
0.02632653061,0.2149963379
0.02634920635,0.2156066895
0.02637188209,0.2154846191
0.02639455782,0.2147827148
0.02641723356,0.2148742676
0.0264399093,0.2150268555
0.02646258503,0.2154541016
0.02648526077,0.2153625488
0.02650793651,0.2149963379
0.02653061224,0.2149047852
0.02655328798,0.2152404785
0.02657596372,0.2152709961
0.02659863946,0.2151794434
0.02662131519,0.2152099609
0.02664399093,0.2159729004
0.02666666667,0.2158813477
0.0266893424,0.2146911621
0.02671201814,0.215423584
0.02673469388,0.2148742676
0.02675736961,0.2158813477
0.02678004535,0.2156982422
0.02680272109,0.2155456543
0.02682539683,0.2152404785
0.02684807256,0.2146606445
0.0268707483,0.2148742676
0.02689342404,0.2149963379
0.02691609977,0.2153015137
0.02693877551,0.2156066895
0.02696145125,0.2153015137
0.02698412698,0.2152404785
0.02700680272,0.2157592773
0.02702947846,0.2159423828
0.0270521542,0.2151184082
0.02707482993,0.2153015137
0.02709750567,0.2157897949
0.02712018141,0.21484375
0.02714285714,0.2151794434
0.02716553288,0.2156677246
0.02718820862,0.2153320312
0.02721088435,0.2154846191
0.02723356009,0.2156066895
0.02725623583,0.2155456543
0.02727891156,0.2149047852
0.0273015873,0.2153320312
0.02732426304,0.2158203125
0.02734693878,0.2151794434
0.02736961451,0.2163085938
0.02739229025,0.215423584
0.02741496599,0.2155761719
0.02743764172,0.216003418
0.02746031746,0.2149963379
0.0274829932,0.2146606445
0.02750566893,0.2145996094
0.02752834467,0.215423584
0.02755102041,0.2156982422
0.02757369615,0.2153320312
0.02759637188,0.2150878906
0.02761904762,0.2148742676
0.02764172336,0.2152099609
0.02766439909,0.2149658203
0.02768707483,0.2147827148
0.02770975057,0.2152404785
0.0277324263,0.2151184082
0.02775510204,0.2151184082
0.02777777778,0.2157287598
0.02780045351,0.2157897949
0.02782312925,0.2156066895
0.02784580499,0.2153625488
0.02786848073,0.2151489258
0.02789115646,0.2152404785
0.0279138322,0.2155761719
0.02793650794,0.2149658203
0.02795918367,0.2150878906
0.02798185941,0.2159423828
0.02800453515,0.2151184082
0.02802721088,0.2149353027
0.02804988662,0.2151489258
0.02807256236,0.2156982422
0.0280952381,0.2157897949
0.02811791383,0.2147521973
0.02814058957,0.2156066895
0.02816326531,0.2151794434
0.02818594104,0.2153320312
0.02820861678,0.2157287598
0.02823129252,0.2149658203
0.02825396825,0.2157287598
0.02827664399,0.2156677246
0.02829931973,0.21484375
0.02832199546,0.2150268555
0.0283446712,0.2154846191
0.02836734694,0.2159118652
0.02839002268,0.215423584
0.02841269841,0.2152709961
0.02843537415,0.215423584
0.02845804989,0.2153930664
0.02848072562,0.21484375
0.02850340136,0.2150878906
0.0285260771,0.2151184082
0.02854875283,0.2153625488
0.02857142857,0.2159729004
0.02859410431,0.2151794434
0.02861678005,0.2150878906
0.02863945578,0.2147216797
0.02866213152,0.2150268555
0.02868480726,0.2152099609
0.02870748299,0.215057373
0.02873015873,0.2153320312
0.02875283447,0.2142944336
0.0287755102,0.2150878906
0.02879818594,0.2153015137
0.02882086168,0.2147216797
0.02884353741,0.2149047852
0.02886621315,0.2149047852
0.02888888889,0.2144165039
0.02891156463,0.2145690918
0.02893424036,0.2151489258
0.0289569161,0.2149963379
0.02897959184,0.2149963379
0.02900226757,0.2146911621
0.02902494331,0.2153625488
0.02904761905,0.2150268555
0.02907029478,0.2144165039
0.02909297052,0.2151184082
0.02911564626,0.2147216797
0.029138322,0.2149047852
0.02916099773,0.2152099609
0.02918367347,0.2141113281
0.02920634921,0.2151184082
0.02922902494,0.2156982422
0.02925170068,0.2153320312
0.02927437642,0.2147521973
0.02929705215,0.2145080566
0.02931972789,0.2149963379
0.02934240363,0.2151184082
0.02936507937,0.2153320312
0.0293877551,0.2151794434
0.02941043084,0.2153015137
0.02943310658,0.2149353027
0.02945578231,0.21484375
0.02947845805,0.2153320312
0.02950113379,0.2142028809
0.02952380952,0.2147827148
0.02954648526,0.2153320312
0.029569161,0.2148742676
0.02959183673,0.2153625488
0.02961451247,0.21484375
0.02963718821,0.215637207
0.02965986395,0.2152709961
0.02968253968,0.215057373
0.02970521542,0.2155456543
0.02972789116,0.2151489258
0.02975056689,0.2155151367
0.02977324263,0.215423584
0.02979591837,0.2146911621
0.0298185941,0.2151489258
0.02984126984,0.2150878906
0.02986394558,0.2144165039
0.02988662132,0.2153015137
0.02990929705,0.2147521973
0.02993197279,0.215057373
0.02995464853,0.215637207
0.02997732426,0.2152099609
0.03,0.2152709961
0.03002267574,0.2147521973
0.03004535147,0.2145385742
0.03006802721,0.215057373
0.03009070295,0.2156066895
0.03011337868,0.2149047852
0.03013605442,0.2153320312
0.03015873016,0.2153625488
0.0301814059,0.2152099609
0.03020408163,0.215637207
0.03022675737,0.2154541016
0.03024943311,0.2151184082
0.03027210884,0.2148132324
0.03029478458,0.2153625488
0.03031746032,0.2155456543
0.03034013605,0.2152709961
0.03036281179,0.2154541016
0.03038548753,0.2151184082
0.03040816327,0.214630127
0.030430839,0.2149963379
0.03045351474,0.2152099609
0.03047619048,0.2147521973
0.03049886621,0.2142944336
0.03052154195,0.214630127
0.03054421769,0.2148132324
0.03056689342,0.2151184082
0.03058956916,0.2149963379
0.0306122449,0.2146606445
0.03063492063,0.2150268555
0.03065759637,0.2157592773
0.03068027211,0.2147216797
0.03070294785,0.2150878906
0.03072562358,0.2155151367
0.03074829932,0.2152099609
0.03077097506,0.2153930664
0.03079365079,0.2156982422
0.03081632653,0.2152099609
0.03083900227,0.2152099609
0.030861678,0.2156677246
0.03088435374,0.2153320312
0.03090702948,0.2150878906
0.03092970522,0.2154846191
0.03095238095,0.2150268555
0.03097505669,0.2141723633
0.03099773243,0.2156066895
0.03102040816,0.2148742676
0.0310430839,0.2145996094
0.03106575964,0.2152404785
0.03108843537,0.2145996094
0.03111111111,0.2149047852
0.03113378685,0.2155151367
0.03115646259,0.214630127
0.03117913832,0.2142028809
0.03120181406,0.2150878906
0.0312244898,0.2155151367
0.03124716553,0.2152709961
0.03126984127,0.2152709961
0.03129251701,0.2151489258
0.03131519274,0.2145690918
0.03133786848,0.2153625488
0.03136054422,0.215637207
0.03138321995,0.2151489258
0.03140589569,0.2153015137
0.03142857143,0.2154541016
0.03145124717,0.2152099609
0.0314739229,0.2156677246
0.03149659864,0.21484375
0.03151927438,0.2152099609
0.03154195011,0.2156066895
0.03156462585,0.2148132324
0.03158730159,0.215637207
0.03160997732,0.2157287598
0.03163265306,0.2151184082
0.0316553288,0.2147216797
0.03167800454,0.2149963379
0.03170068027,0.2148742676
0.03172335601,0.21484375
0.03174603175,0.2147521973
0.03176870748,0.2151184082
0.03179138322,0.2155151367
0.03181405896,0.2144470215
0.03183673469,0.2149963379
0.03185941043,0.2156982422
0.03188208617,0.2150878906
0.0319047619,0.2155456543
0.03192743764,0.2153320312
0.03195011338,0.215057373
0.03197278912,0.215423584
0.03199546485,0.2149963379
0.03201814059,0.2154846191
0.03204081633,0.2155456543
0.03206349206,0.2152099609
0.0320861678,0.2150878906
0.03210884354,0.2146606445
0.03213151927,0.2156066895
0.03215419501,0.2151489258
0.03217687075,0.2153625488
0.03219954649,0.2156066895
0.03222222222,0.2151489258
0.03224489796,0.2150268555
0.0322675737,0.2149658203
0.03229024943,0.2152404785
0.03231292517,0.2152404785
0.03233560091,0.2159423828
0.03235827664,0.216003418
0.03238095238,0.2154846191
0.03240362812,0.215057373
0.03242630385,0.2147216797
0.03244897959,0.2140808105
0.03247165533,0.2142944336
0.03249433107,0.2144775391
0.0325170068,0.2150268555
0.03253968254,0.2154846191
0.03256235828,0.2152099609
0.03258503401,0.2152709961
0.03260770975,0.2159423828
0.03263038549,0.2149658203
0.03265306122,0.2149963379
0.03267573696,0.2157592773
0.0326984127,0.2151489258
0.03272108844,0.2151489258
0.03274376417,0.216003418
0.03276643991,0.2161254883
0.03278911565,0.2149047852
0.03281179138,0.2153930664
0.03283446712,0.2159423828
0.03285714286,0.2153320312
0.03287981859,0.215637207
0.03290249433,0.2155456543
0.03292517007,0.2156066895
0.0329478458,0.2159423828
0.03297052154,0.2156066895
0.03299319728,0.2148132324
0.03301587302,0.2156066895
0.03303854875,0.2152709961
0.03306122449,0.2151794434
0.03308390023,0.2154846191
0.03310657596,0.2148132324
0.0331292517,0.2155761719
0.03315192744,0.2153625488
0.03317460317,0.215637207
0.03319727891,0.2154846191
0.03321995465,0.2144165039
0.03324263039,0.2151184082
0.03326530612,0.2151184082
0.03328798186,0.2150878906
0.0333106576,0.2149353027
0.03333333333,0.21484375
0.03335600907,0.2160644531
0.03337868481,0.2155456543
0.03340136054,0.2143554688
0.03342403628,0.2147216797
0.03344671202,0.21484375
0.03346938776,0.2147216797
0.03349206349,0.2143859863
0.03351473923,0.2150878906
0.03353741497,0.2151794434
0.0335600907,0.2149353027
0.03358276644,0.2146606445
0.03360544218,0.215057373
0.03362811791,0.2153015137
0.03365079365,0.2148132324
0.03367346939,0.215057373
0.03369614512,0.2149353027
0.03371882086,0.2147216797
0.0337414966,0.2152099609
0.03376417234,0.2149047852
0.03378684807,0.2153320312
0.03380952381,0.2160339355
0.03383219955,0.2152404785
0.03385487528,0.2148132324
0.03387755102,0.2157287598
0.03390022676,0.2147827148
0.03392290249,0.2151489258
0.03394557823,0.2150878906
0.03396825397,0.2153015137
0.03399092971,0.2153930664
0.03401360544,0.2146606445
0.03403628118,0.2150878906
0.03405895692,0.2147521973
0.03408163265,0.2150268555
0.03410430839,0.2149047852
0.03412698413,0.2150268555
0.03414965986,0.215423584
0.0341723356,0.2151794434
0.03419501134,0.2149047852
0.03421768707,0.2154541016
0.03424036281,0.2152099609
0.03426303855,0.215057373
0.03428571429,0.2155151367
0.03430839002,0.2150878906
0.03433106576,0.2148132324
0.0343537415,0.2156066895
0.03437641723,0.2164916992
0.03439909297,0.2146911621
0.03442176871,0.2147216797
0.03444444444,0.2151184082
0.03446712018,0.2147827148
0.03448979592,0.2149963379
0.03451247166,0.2146911621
0.03453514739,0.2151184082
0.03455782313,0.2157592773
0.03458049887,0.21484375
0.0346031746,0.21484375
0.03462585034,0.2156066895
0.03464852608,0.2152404785
0.03467120181,0.2157287598
0.03469387755,0.2151489258
0.03471655329,0.2151794434
0.03473922902,0.2156677246
0.03476190476,0.2154846191
0.0347845805,0.2153625488
0.03480725624,0.2149658203
0.03482993197,0.2156066895
0.03485260771,0.2153015137
0.03487528345,0.2152404785
0.03489795918,0.2144470215
0.03492063492,0.2149658203
0.03494331066,0.2149963379
0.03496598639,0.2152099609
0.03498866213,0.2154846191
0.03501133787,0.2157897949
0.03503401361,0.2155151367
0.03505668934,0.2154541016
0.03507936508,0.2160644531
0.03510204082,0.2149963379
0.03512471655,0.2153625488
0.03514739229,0.2151184082
0.03517006803,0.2149047852
0.03519274376,0.2151184082
0.0352154195,0.2148132324
0.03523809524,0.2156066895
0.03526077098,0.2155761719
0.03528344671,0.2150878906
0.03530612245,0.215637207
0.03532879819,0.2150268555
0.03535147392,0.215057373
0.03537414966,0.2155151367
0.0353968254,0.2153625488
0.03541950113,0.2153015137
0.03544217687,0.2146911621
0.03546485261,0.21484375
0.03548752834,0.2145996094
0.03551020408,0.2147827148
0.03553287982,0.2155761719
0.03555555556,0.2157592773
0.03557823129,0.2156677246
0.03560090703,0.2151489258
0.03562358277,0.2151184082
0.0356462585,0.2152099609
0.03566893424,0.2151489258
0.03569160998,0.2152099609
0.03571428571,0.2149047852
0.03573696145,0.2154846191
0.03575963719,0.2154846191
0.03578231293,0.2145996094
0.03580498866,0.2147521973
0.0358276644,0.21484375
0.03585034014,0.2148742676
0.03587301587,0.2156066895
0.03589569161,0.2149047852
0.03591836735,0.2149658203
0.03594104308,0.2152404785
0.03596371882,0.215423584
0.03598639456,0.2150878906
0.03600907029,0.2149658203
0.03603174603,0.2153625488
0.03605442177,0.2155761719
0.03607709751,0.2153320312
0.03609977324,0.2147521973
0.03612244898,0.21484375
0.03614512472,0.2149353027
0.03616780045,0.2147827148
0.03619047619,0.2145996094
0.03621315193,0.2149963379
0.03623582766,0.2152709961
0.0362585034,0.2147521973
0.03628117914,0.2152709961
0.03630385488,0.2150268555
0.03632653061,0.2149353027
0.03634920635,0.2158508301
0.03637188209,0.2162780762
0.03639455782,0.2156982422
0.03641723356,0.2146606445
0.0364399093,0.2146606445
0.03646258503,0.2152709961
0.03648526077,0.2137145996
0.03650793651,0.214263916
0.03653061224,0.2152099609
0.03655328798,0.2150268555
0.03657596372,0.2156982422
0.03659863946,0.2156982422
0.03662131519,0.2149963379
0.03664399093,0.2145080566
0.03666666667,0.2143249512
0.0366893424,0.2149353027
0.03671201814,0.2158508301
0.03673469388,0.2153015137
0.03675736961,0.2150878906
0.03678004535,0.2148132324
0.03680272109,0.2153320312
0.03682539683,0.2157592773
0.03684807256,0.214630127
0.0368707483,0.2145385742
0.03689342404,0.2148132324
0.03691609977,0.2152099609
0.03693877551,0.215637207
0.03696145125,0.2151489258
0.03698412698,0.2153930664
0.03700680272,0.2149658203
0.03702947846,0.2154541016
0.0370521542,0.2157287598
0.03707482993,0.2156982422
0.03709750567,0.2155151367
0.03712018141,0.2155761719
0.03714285714,0.2157287598
0.03716553288,0.2149047852
0.03718820862,0.2150878906
0.03721088435,0.2149353027
0.03723356009,0.2151184082
0.03725623583,0.2152709961
0.03727891156,0.2150878906
0.0373015873,0.2152099609
0.03732426304,0.2155456543
0.03734693878,0.2155761719
0.03736961451,0.2160644531
0.03739229025,0.2153320312
0.03741496599,0.2144470215
0.03743764172,0.2146911621
0.03746031746,0.2146606445
0.0374829932,0.2144470215
0.03750566893,0.21484375
0.03752834467,0.215637207
0.03755102041,0.215637207
0.03757369615,0.2152404785
0.03759637188,0.2149353027
0.03761904762,0.2146911621
0.03764172336,0.2152404785
0.03766439909,0.2151184082
0.03768707483,0.2149658203
0.03770975057,0.21484375
0.0377324263,0.2156066895
0.03775510204,0.2154846191
0.03777777778,0.215057373
0.03780045351,0.2149353027
0.03782312925,0.2152709961
0.03784580499,0.2152709961
0.03786848073,0.2149963379
0.03789115646,0.2148742676
0.0379138322,0.2146606445
0.03793650794,0.2153015137
0.03795918367,0.2153930664
0.03798185941,0.2146606445
0.03800453515,0.2148132324
0.03802721088,0.214630127
0.03804988662,0.2148132324
0.03807256236,0.2149047852
0.0380952381,0.2151489258
0.03811791383,0.2155151367
0.03814058957,0.2149963379
0.03816326531,0.2151794434
0.03818594104,0.2152099609
0.03820861678,0.2149353027
0.03823129252,0.2149963379
0.03825396825,0.2149963379
0.03827664399,0.2149963379
0.03829931973,0.2149047852
0.03832199546,0.2152099609
0.0383446712,0.2153015137
0.03836734694,0.215637207
0.03839002268,0.215057373
0.03841269841,0.2154846191
0.03843537415,0.2149353027
0.03845804989,0.2152404785
0.03848072562,0.214630127
0.03850340136,0.2143249512
0.0385260771,0.2153320312
0.03854875283,0.2153930664
0.03857142857,0.2157287598
0.03859410431,0.2153930664
0.03861678005,0.2150878906
0.03863945578,0.2152404785
0.03866213152,0.2158508301
0.03868480726,0.2152404785
0.03870748299,0.2153015137
0.03873015873,0.2159423828
0.03875283447,0.2152709961
0.0387755102,0.2149047852
0.03879818594,0.2149963379
0.03882086168,0.2150268555
0.03884353741,0.2152709961
0.03886621315,0.2160949707
0.03888888889,0.2149353027
0.03891156463,0.2151489258
0.03893424036,0.2159423828
0.0389569161,0.2144165039
0.03897959184,0.2149047852
0.03900226757,0.2153320312
0.03902494331,0.2152404785
0.03904761905,0.2156677246
0.03907029478,0.2155151367
0.03909297052,0.2149047852
0.03911564626,0.2149963379
0.039138322,0.2146606445
0.03916099773,0.215637207
0.03918367347,0.2153015137
0.03920634921,0.2146606445
0.03922902494,0.2145690918
0.03925170068,0.2147216797
0.03927437642,0.215423584
0.03929705215,0.2153015137
0.03931972789,0.2152099609
0.03934240363,0.2152709961
0.03936507937,0.2157592773
0.0393877551,0.2153320312
0.03941043084,0.2149963379
0.03943310658,0.2145080566
0.03945578231,0.2153015137
0.03947845805,0.2147216797
0.03950113379,0.2139892578
0.03952380952,0.2151489258
0.03954648526,0.2150268555
0.039569161,0.2151184082
0.03959183673,0.2146606445
0.03961451247,0.21484375
0.03963718821,0.2155761719
0.03965986395,0.2153625488
0.03968253968,0.2151489258
0.03970521542,0.2147216797
0.03972789116,0.2148742676
0.03975056689,0.2153625488
0.03977324263,0.2147521973
0.03979591837,0.2151489258
0.0398185941,0.2151184082
0.03984126984,0.2145996094
0.03986394558,0.2149963379
0.03988662132,0.2150268555
0.03990929705,0.2151184082
0.03993197279,0.2151794434
0.03995464853,0.21484375
0.03997732426,0.2151184082
0.04,0.2155151367
0.04002267574,0.2149658203
0.04004535147,0.2153320312
0.04006802721,0.2149963379
0.04009070295,0.2149047852
0.04011337868,0.2150268555
0.04013605442,0.2151184082
0.04015873016,0.2151489258
0.0401814059,0.2148742676
0.04020408163,0.2159423828
0.04022675737,0.2151489258
0.04024943311,0.2153320312
0.04027210884,0.2152099609
0.04029478458,0.2146911621
0.04031746032,0.215637207
0.04034013605,0.2150878906
0.04036281179,0.2159118652
0.04038548753,0.2153320312
0.04040816327,0.2148132324
0.040430839,0.2151489258
0.04045351474,0.2144165039
0.04047619048,0.214263916
0.04049886621,0.2145690918
0.04052154195,0.2147216797
0.04054421769,0.2153015137
0.04056689342,0.2156066895
0.04058956916,0.2154541016
0.0406122449,0.2149353027
0.04063492063,0.2151489258
0.04065759637,0.215423584
0.04068027211,0.2150268555
0.04070294785,0.2150878906
0.04072562358,0.2151489258
0.04074829932,0.2151184082
0.04077097506,0.2146606445
0.04079365079,0.2149047852
0.04081632653,0.2152404785
0.04083900227,0.2148742676
0.040861678,0.2154541016
0.04088435374,0.2153930664
0.04090702948,0.2149963379
0.04092970522,0.2157287598
0.04095238095,0.2150268555
0.04097505669,0.2151489258
0.04099773243,0.2153015137
0.04102040816,0.2149047852
0.0410430839,0.2153930664
0.04106575964,0.2150878906
0.04108843537,0.2158813477
0.04111111111,0.215637207
0.04113378685,0.2154541016
0.04115646259,0.2150878906
0.04117913832,0.2152099609
0.04120181406,0.2151184082
0.0412244898,0.21484375
0.04124716553,0.2153320312
0.04126984127,0.2150268555
0.04129251701,0.2153625488
0.04131519274,0.2155151367
0.04133786848,0.2147521973
0.04136054422,0.2155151367
0.04138321995,0.2148742676
0.04140589569,0.2140808105
0.04142857143,0.2143249512
0.04145124717,0.2141418457
0.0414739229,0.2144470215
0.04149659864,0.2146606445
0.04151927438,0.2151794434
0.04154195011,0.2151794434
0.04156462585,0.2147827148
0.04158730159,0.21484375
0.04160997732,0.2150878906
0.04163265306,0.215057373
0.0416553288,0.215057373
0.04167800454,0.2151489258
0.04170068027,0.2150268555
0.04172335601,0.2153320312
0.04174603175,0.2155456543
0.04176870748,0.2157287598
0.04179138322,0.2153930664
0.04181405896,0.2152099609
0.04183673469,0.2153015137
0.04185941043,0.2156066895
0.04188208617,0.2149353027
0.0419047619,0.2148132324
0.04192743764,0.2149047852
0.04195011338,0.2143859863
0.04197278912,0.2150268555
0.04199546485,0.2151489258
0.04201814059,0.2153625488
0.04204081633,0.2145690918
0.04206349206,0.2148742676
0.0420861678,0.2152099609
0.04210884354,0.2147827148
0.04213151927,0.2156066895
0.04215419501,0.2150878906
0.04217687075,0.2149658203
0.04219954649,0.215057373
0.04222222222,0.2149353027
0.04224489796,0.2153015137
0.0422675737,0.2148132324
0.04229024943,0.2147521973
0.04231292517,0.2153015137
0.04233560091,0.2145690918
0.04235827664,0.2156066895
0.04238095238,0.2154541016
0.04240362812,0.2147521973
0.04242630385,0.2152404785
0.04244897959,0.2153930664
0.04247165533,0.214263916
0.04249433107,0.2142028809
0.0425170068,0.2149047852
0.04253968254,0.2151489258
0.04256235828,0.2153015137
0.04258503401,0.2152709961
0.04260770975,0.2143554688
0.04263038549,0.2146606445
0.04265306122,0.2144775391
0.04267573696,0.214050293
0.0426984127,0.2152404785
0.04272108844,0.2148742676
0.04274376417,0.2151794434
0.04276643991,0.2151489258
0.04278911565,0.2147521973
0.04281179138,0.2156982422
0.04283446712,0.2150268555
0.04285714286,0.2144165039
0.04287981859,0.2145385742
0.04290249433,0.2145080566
0.04292517007,0.2144775391
0.0429478458,0.214630127
0.04297052154,0.2155456543
0.04299319728,0.2155761719
0.04301587302,0.2149658203
0.04303854875,0.2153320312
0.04306122449,0.215423584
0.04308390023,0.2151794434
0.04310657596,0.2158508301
0.0431292517,0.2152099609
0.04315192744,0.2151184082
0.04317460317,0.2156066895
0.04319727891,0.2155761719
0.04321995465,0.2151184082
0.04324263039,0.2149658203
0.04326530612,0.2151184082
0.04328798186,0.2153015137
0.0433106576,0.2151184082
0.04333333333,0.2149047852
0.04335600907,0.2158508301
0.04337868481,0.2155761719
0.04340136054,0.2149353027
0.04342403628,0.2147827148
0.04344671202,0.21484375
0.04346938776,0.215423584
0.04349206349,0.2146911621
0.04351473923,0.2146911621
0.04353741497,0.2148742676
0.0435600907,0.2146911621
0.04358276644,0.2155761719
0.04360544218,0.2156677246
0.04362811791,0.2153015137
0.04365079365,0.2153320312
0.04367346939,0.215057373
0.04369614512,0.2150268555
0.04371882086,0.2149353027
0.0437414966,0.2150268555
0.04376417234,0.2147827148
0.04378684807,0.2146606445
0.04380952381,0.2148742676
0.04383219955,0.215637207
0.04385487528,0.2153015137
0.04387755102,0.214263916
0.04390022676,0.215057373
0.04392290249,0.2155151367
0.04394557823,0.2153320312
0.04396825397,0.2152404785
0.04399092971,0.2151794434
0.04401360544,0.215423584
0.04403628118,0.2150268555
0.04405895692,0.2149047852
0.04408163265,0.2155761719
0.04410430839,0.2147827148
0.04412698413,0.2152709961
0.04414965986,0.2147521973
0.0441723356,0.2152709961
0.04419501134,0.2149353027
0.04421768707,0.2145080566
0.04424036281,0.2146606445
0.04426303855,0.2147827148
0.04428571429,0.2150268555
0.04430839002,0.2147521973
0.04433106576,0.2154541016
0.0443537415,0.216003418
0.04437641723,0.2156066895
0.04439909297,0.2151489258
0.04442176871,0.215057373
0.04444444444,0.2156066895
0.04446712018,0.2153625488
0.04448979592,0.2152404785
0.04451247166,0.2147827148
0.04453514739,0.2148742676
0.04455782313,0.2151184082
0.04458049887,0.2150268555
0.0446031746,0.2151184082
0.04462585034,0.215057373
0.04464852608,0.2153320312
0.04467120181,0.2151794434
0.04469387755,0.2149047852
0.04471655329,0.2151794434
0.04473922902,0.2151184082
0.04476190476,0.2149658203
0.0447845805,0.2152709961
0.04480725624,0.2149963379
0.04482993197,0.2153625488
0.04485260771,0.2156677246
0.04487528345,0.215423584
0.04489795918,0.2149047852
0.04492063492,0.2153625488
0.04494331066,0.2151184082
0.04496598639,0.2150268555
0.04498866213,0.2147827148
0.04501133787,0.2145385742
0.04503401361,0.2149353027
0.04505668934,0.2148742676
0.04507936508,0.2148132324
0.04510204082,0.2146606445
0.04512471655,0.2152709961
0.04514739229,0.215057373
0.04517006803,0.2152404785
0.04519274376,0.2153015137
0.0452154195,0.2152099609
0.04523809524,0.2145080566
0.04526077098,0.2145690918
0.04528344671,0.2152709961
0.04530612245,0.2150878906
0.04532879819,0.2149353027
0.04535147392,0.2150878906
0.04537414966,0.2160949707
0.0453968254,0.2149658203
0.04541950113,0.2146606445
0.04544217687,0.2151489258
0.04546485261,0.2142333984
0.04548752834,0.2141418457
0.04551020408,0.2140808105
0.04553287982,0.2144470215
0.04555555556,0.2144470215
0.04557823129,0.2149963379
0.04560090703,0.2153320312
0.04562358277,0.2148742676
0.0456462585,0.2149047852
0.04566893424,0.2151794434
0.04569160998,0.2150878906
0.04571428571,0.2149047852
0.04573696145,0.2145690918
0.04575963719,0.2149658203
0.04578231293,0.2153015137
0.04580498866,0.2150268555
0.0458276644,0.2152099609
0.04585034014,0.2150878906
0.04587301587,0.2147827148
0.04589569161,0.2153930664
0.04591836735,0.2150878906
0.04594104308,0.2153015137
0.04596371882,0.2150268555
0.04598639456,0.2151184082
0.04600907029,0.2155456543
0.04603174603,0.2152099609
0.04605442177,0.2149047852
0.04607709751,0.2150268555
0.04609977324,0.2147827148
0.04612244898,0.2151489258
0.04614512472,0.2146606445
0.04616780045,0.2152099609
0.04619047619,0.2152099609
0.04621315193,0.2145996094
0.04623582766,0.2145690918
0.0462585034,0.2145385742
0.04628117914,0.2142333984
0.04630385488,0.2156066895
0.04632653061,0.2153625488
0.04634920635,0.2145996094
0.04637188209,0.2151794434
0.04639455782,0.2149963379
0.04641723356,0.2147216797
0.0464399093,0.2150268555
0.04646258503,0.214630127
0.04648526077,0.2151184082
0.04650793651,0.2142028809
0.04653061224,0.2150268555
0.04655328798,0.2155456543
0.04657596372,0.215057373
0.04659863946,0.2150268555
0.04662131519,0.2150268555
0.04664399093,0.2156677246
0.04666666667,0.2151184082
0.0466893424,0.2155151367
0.04671201814,0.2154541016
0.04673469388,0.2147827148
0.04675736961,0.2146606445
0.04678004535,0.2152709961
0.04680272109,0.215057373
0.04682539683,0.214630127
0.04684807256,0.2143249512
0.0468707483,0.2142333984
0.04689342404,0.2151794434
0.04691609977,0.2144775391
0.04693877551,0.2140808105
0.04696145125,0.2143554688
0.04698412698,0.215423584
0.04700680272,0.2147827148
0.04702947846,0.2148132324
0.0470521542,0.2154846191
0.04707482993,0.21484375
0.04709750567,0.2145385742
0.04712018141,0.2147827148
0.04714285714,0.2150878906
0.04716553288,0.2146911621
0.04718820862,0.214630127
0.04721088435,0.2151794434
0.04723356009,0.2151489258
0.04725623583,0.2152099609
0.04727891156,0.2154541016
0.0473015873,0.2152709961
0.04732426304,0.2146606445
0.04734693878,0.2156677246
0.04736961451,0.2161254883
0.04739229025,0.215057373
0.04741496599,0.2153930664
0.04743764172,0.2153015137
0.04746031746,0.2146911621
0.0474829932,0.2139587402
0.04750566893,0.2141113281
0.04752834467,0.2152099609
0.04755102041,0.2156677246
0.04757369615,0.2150268555
0.04759637188,0.2147827148
0.04761904762,0.2153930664
0.04764172336,0.2151184082
0.04766439909,0.2149353027
0.04768707483,0.2143554688
0.04770975057,0.2152404785
0.0477324263,0.2149658203
0.04775510204,0.2147827148
0.04777777778,0.2147216797
0.04780045351,0.215423584
0.04782312925,0.2151794434
0.04784580499,0.2145690918
0.04786848073,0.2145996094
0.04789115646,0.2142333984
0.0479138322,0.2143249512
0.04793650794,0.2148742676
0.04795918367,0.2144775391
0.04798185941,0.2155151367
0.04800453515,0.2150878906
0.04802721088,0.2147521973
0.04804988662,0.2151489258
0.04807256236,0.2151489258
0.0480952381,0.2148132324
0.04811791383,0.2143859863
0.04814058957,0.2146606445
0.04816326531,0.2153320312
0.04818594104,0.2145996094
0.04820861678,0.2149658203
0.04823129252,0.2150878906
0.04825396825,0.2148742676
0.04827664399,0.2147521973
0.04829931973,0.2142028809
0.04832199546,0.2145996094
0.0483446712,0.2148132324
0.04836734694,0.2147827148
0.04839002268,0.2147827148
0.04841269841,0.2145080566
0.04843537415,0.2143554688
0.04845804989,0.2147827148
0.04848072562,0.2143249512
0.04850340136,0.2144775391
0.0485260771,0.2150268555
0.04854875283,0.2144165039
0.04857142857,0.2145690918
0.04859410431,0.21484375
0.04861678005,0.2142028809
0.04863945578,0.2143859863
0.04866213152,0.2149963379
0.04868480726,0.2149658203
0.04870748299,0.2149353027
0.04873015873,0.2147827148
0.04875283447,0.2144165039
0.0487755102,0.2149658203
0.04879818594,0.2149353027
0.04882086168,0.2147521973
0.04884353741,0.2146606445
0.04886621315,0.2141723633
0.04888888889,0.2149658203
0.04891156463,0.2146911621
0.04893424036,0.2139892578
0.0489569161,0.2145996094
0.04897959184,0.2151184082
0.04900226757,0.2145690918
0.04902494331,0.2145080566
0.04904761905,0.2146911621
0.04907029478,0.2153015137
0.04909297052,0.2151184082
0.04911564626,0.2146911621
0.049138322,0.2147521973
0.04916099773,0.2145996094
0.04918367347,0.2153625488
0.04920634921,0.2158508301
0.04922902494,0.215423584
0.04925170068,0.2151489258
0.04927437642,0.2150878906
0.04929705215,0.21484375
0.04931972789,0.21484375
0.04934240363,0.2151489258
0.04936507937,0.2146606445
0.0493877551,0.2148742676
0.04941043084,0.2147827148
0.04943310658,0.2151794434
0.04945578231,0.2156677246
0.04947845805,0.2153015137
0.04950113379,0.2145080566
0.04952380952,0.2148132324
0.04954648526,0.2147827148
0.049569161,0.2150878906
0.04959183673,0.2150878906
0.04961451247,0.2148742676
0.04963718821,0.2149658203
0.04965986395,0.2149963379
0.04968253968,0.2153930664
0.04970521542,0.2152709961
0.04972789116,0.2153930664
0.04975056689,0.2153320312
0.04977324263,0.2144165039
0.04979591837,0.2152404785
0.0498185941,0.2145996094
0.04984126984,0.2146606445
0.04986394558,0.2152404785
0.04988662132,0.2150268555
0.04990929705,0.2147216797
0.04993197279,0.2147827148
0.04995464853,0.2141723633
0.04997732426,0.2144470215
0.05,0.2150878906
0.05002267574,0.2146911621
0.05004535147,0.2147216797
0.05006802721,0.2149047852
0.05009070295,0.2150878906
0.05011337868,0.2145385742
0.05013605442,0.2145996094
0.05015873016,0.2149353027
0.0501814059,0.2150878906
0.05020408163,0.2148132324
0.05022675737,0.2149963379
0.05024943311,0.2153930664
0.05027210884,0.2151184082
0.05029478458,0.2151794434
0.05031746032,0.2154541016
0.05034013605,0.2154846191
0.05036281179,0.2146606445
0.05038548753,0.215057373
0.05040816327,0.2152709961
0.050430839,0.2146606445
0.05045351474,0.2153625488
0.05047619048,0.21484375
0.05049886621,0.2153320312
0.05052154195,0.2151184082
0.05054421769,0.2148132324
0.05056689342,0.2149047852
0.05058956916,0.2147521973
0.0506122449,0.2145996094
0.05063492063,0.2143554688
0.05065759637,0.2146911621
0.05068027211,0.2150268555
0.05070294785,0.2149353027
0.05072562358,0.2153930664
0.05074829932,0.2151794434
0.05077097506,0.2146606445
0.05079365079,0.2153015137
0.05081632653,0.215057373
0.05083900227,0.2144470215
0.050861678,0.2149963379
0.05088435374,0.2154846191
0.05090702948,0.2148132324
0.05092970522,0.2145080566
0.05095238095,0.2143554688
0.05097505669,0.2150878906
0.05099773243,0.2148742676
0.05102040816,0.2145996094
0.0510430839,0.2151489258
0.05106575964,0.2153625488
0.05108843537,0.2145080566
0.05111111111,0.2147521973
0.05113378685,0.2157287598
0.05115646259,0.2152709961
0.05117913832,0.2147827148
0.05120181406,0.2148742676
0.0512244898,0.2154846191
0.05124716553,0.2148742676
0.05126984127,0.2152709961
0.05129251701,0.2147827148
0.05131519274,0.2153320312
0.05133786848,0.2155456543
0.05136054422,0.2146911621
0.05138321995,0.2146606445
0.05140589569,0.2153320312
0.05142857143,0.2155151367
0.05145124717,0.2145385742
0.0514739229,0.215423584
0.05149659864,0.2150878906
0.05151927438,0.2149047852
0.05154195011,0.2153015137
0.05156462585,0.2154846191
0.05158730159,0.2153930664
0.05160997732,0.2158508301
0.05163265306,0.2155761719
0.0516553288,0.2153625488
0.05167800454,0.2157897949
0.05170068027,0.2152404785
0.05172335601,0.215057373
0.05174603175,0.2153625488
0.05176870748,0.2154541016
0.05179138322,0.2153320312
0.05181405896,0.2149963379
0.05183673469,0.215057373
0.05185941043,0.2153625488
0.05188208617,0.2156982422
0.0519047619,0.2151489258
0.05192743764,0.2150268555
0.05195011338,0.21484375
0.05197278912,0.2150878906
0.05199546485,0.2146911621
0.05201814059,0.2138366699
0.05204081633,0.2147827148
0.05206349206,0.2151794434
0.0520861678,0.2151184082
0.05210884354,0.214630127
0.05213151927,0.2152099609
0.05215419501,0.2147216797
0.05217687075,0.2149658203
0.05219954649,0.2154846191
0.05222222222,0.2149353027
0.05224489796,0.2154541016
0.0522675737,0.2151489258
0.05229024943,0.2149963379
0.05231292517,0.2148132324
0.05233560091,0.2154541016
0.05235827664,0.2149658203
0.05238095238,0.2147521973
0.05240362812,0.2154846191
0.05242630385,0.2150878906
0.05244897959,0.2146606445
0.05247165533,0.2152709961
0.05249433107,0.2153930664
0.0525170068,0.2153930664
0.05253968254,0.215637207
0.05256235828,0.2146911621
0.05258503401,0.2153625488
0.05260770975,0.2158813477
0.05263038549,0.2149658203
0.05265306122,0.2148742676
0.05267573696,0.2152099609
0.0526984127,0.2147521973
0.05272108844,0.2151489258
0.05274376417,0.2147521973
0.05276643991,0.2149047852
0.05278911565,0.215637207
0.05281179138,0.2159423828
0.05283446712,0.2153015137
0.05285714286,0.2154846191
0.05287981859,0.2156066895
0.05290249433,0.2150878906
0.05292517007,0.2152099609
0.0529478458,0.2148132324
0.05297052154,0.2151184082
0.05299319728,0.2146911621
0.05301587302,0.2144470215
0.05303854875,0.2150268555
0.05306122449,0.2149963379
0.05308390023,0.2149353027
0.05310657596,0.2145690918
0.0531292517,0.2142944336
0.05315192744,0.2149047852
0.05317460317,0.2146606445
0.05319727891,0.215057373
0.05321995465,0.2153015137
0.05324263039,0.2144165039
0.05326530612,0.2153625488
0.05328798186,0.2146606445
0.0533106576,0.2143249512
0.05333333333,0.21484375
0.05335600907,0.2147216797
0.05337868481,0.2151794434
0.05340136054,0.2153015137
0.05342403628,0.2152099609
0.05344671202,0.2150878906
0.05346938776,0.2156066895
0.05349206349,0.2146911621
0.05351473923,0.2145385742
0.05353741497,0.2153930664
0.0535600907,0.2153320312
0.05358276644,0.2153625488
0.05360544218,0.2145690918
0.05362811791,0.2146606445
0.05365079365,0.2152709961
0.05367346939,0.2150878906
0.05369614512,0.2157897949
0.05371882086,0.2151794434
0.0537414966,0.2148132324
0.05376417234,0.215057373
0.05378684807,0.215057373
0.05380952381,0.2155456543
0.05383219955,0.215057373
0.05385487528,0.2150878906
0.05387755102,0.2144775391
0.05390022676,0.2145996094
0.05392290249,0.2153015137
0.05394557823,0.2151489258
0.05396825397,0.2154541016
0.05399092971,0.2145996094
0.05401360544,0.2142944336
0.05403628118,0.215057373
0.05405895692,0.2150878906
0.05408163265,0.2149963379
0.05410430839,0.2160949707
0.05412698413,0.215057373
0.05414965986,0.2148132324
0.0541723356,0.2152099609
0.05419501134,0.2145690918
0.05421768707,0.2151489258
0.05424036281,0.2153015137
0.05426303855,0.2152099609
0.05428571429,0.2151794434
0.05430839002,0.2153015137
0.05433106576,0.2154541016
0.0543537415,0.2151184082
0.05437641723,0.2149963379
0.05439909297,0.2146606445
0.05442176871,0.2156066895
0.05444444444,0.2159118652
0.05446712018,0.2151184082
0.05448979592,0.215423584
0.05451247166,0.2151184082
0.05453514739,0.2153015137
0.05455782313,0.2154541016
0.05458049887,0.2152404785
0.0546031746,0.2153320312
0.05462585034,0.2145385742
0.05464852608,0.2145080566
0.05467120181,0.2149047852
0.05469387755,0.215423584
0.05471655329,0.2153625488
0.05473922902,0.2153015137
0.05476190476,0.2145690918
0.0547845805,0.2148132324
0.05480725624,0.2148132324
0.05482993197,0.2147521973
0.05485260771,0.2155761719
0.05487528345,0.215423584
0.05489795918,0.2157897949
0.05492063492,0.2151184082
0.05494331066,0.2146606445
0.05496598639,0.2153625488
0.05498866213,0.2149963379
0.05501133787,0.2142333984
0.05503401361,0.2148742676
0.05505668934,0.2151184082
0.05507936508,0.2150878906
0.05510204082,0.2156066895
0.05512471655,0.2152099609
0.05514739229,0.2146606445
0.05517006803,0.2151184082
0.05519274376,0.2153015137
0.0552154195,0.2151184082
0.05523809524,0.2150268555
0.05526077098,0.2157897949
0.05528344671,0.2154846191
0.05530612245,0.2146606445
0.05532879819,0.2145080566
0.05535147392,0.2146606445
0.05537414966,0.2146606445
0.0553968254,0.2148132324
0.05541950113,0.214630127
0.05544217687,0.2153015137
0.05546485261,0.2147827148
0.05548752834,0.2151184082
0.05551020408,0.215423584
0.05553287982,0.215057373
0.05555555556,0.2153015137
0.05557823129,0.2147521973
0.05560090703,0.2148742676
0.05562358277,0.2151184082
0.0556462585,0.2147521973
0.05566893424,0.2153625488
0.05569160998,0.215423584
0.05571428571,0.2154846191
0.05573696145,0.2155456543
0.05575963719,0.2153320312
0.05578231293,0.2153930664
0.05580498866,0.2153320312
0.0558276644,0.2152404785
0.05585034014,0.2159423828
0.05587301587,0.2151794434
0.05589569161,0.2148742676
0.05591836735,0.2152099609
0.05594104308,0.2151489258
0.05596371882,0.2159118652
0.05598639456,0.2152404785
0.05600907029,0.2150268555
0.05603174603,0.2146606445
0.05605442177,0.2155151367
0.05607709751,0.2158508301
0.05609977324,0.2153320312
0.05612244898,0.2153320312
0.05614512472,0.2149963379
0.05616780045,0.21484375
0.05619047619,0.2152709961
0.05621315193,0.2153015137
0.05623582766,0.2152709961
0.0562585034,0.2156982422
0.05628117914,0.215423584
0.05630385488,0.2149658203
0.05632653061,0.2154541016
0.05634920635,0.2155456543
0.05637188209,0.2155456543
0.05639455782,0.2149963379
0.05641723356,0.2148132324
0.0564399093,0.215057373
0.05646258503,0.2148132324
0.05648526077,0.2155456543
0.05650793651,0.2153930664
0.05653061224,0.215057373
0.05655328798,0.2152099609
0.05657596372,0.2151794434
0.05659863946,0.2152404785
0.05662131519,0.2153015137
0.05664399093,0.2154541016
0.05666666667,0.2156066895
0.0566893424,0.2156982422
0.05671201814,0.2160339355
0.05673469388,0.2156066895
0.05675736961,0.2156066895
0.05678004535,0.2150268555
0.05680272109,0.2151489258
0.05682539683,0.2150268555
0.05684807256,0.2148742676
0.0568707483,0.215423584
0.05689342404,0.2155151367
0.05691609977,0.2154846191
0.05693877551,0.2153015137
0.05696145125,0.2154846191
0.05698412698,0.2151794434
0.05700680272,0.2147827148
0.05702947846,0.2152404785
0.0570521542,0.2148742676
0.05707482993,0.2149658203
0.05709750567,0.2152404785
0.05712018141,0.2146606445
0.05714285714,0.2151794434
0.05716553288,0.21484375
0.05718820862,0.2147521973
0.05721088435,0.215057373
0.05723356009,0.2153015137
0.05725623583,0.2151489258
0.05727891156,0.2153015137
0.0573015873,0.2143859863
0.05732426304,0.214630127
0.05734693878,0.21484375
0.05736961451,0.2147216797
0.05739229025,0.2148132324
0.05741496599,0.215057373
0.05743764172,0.2153625488
0.05746031746,0.2147521973
0.0574829932,0.2155761719
0.05750566893,0.2158508301
0.05752834467,0.2147216797
0.05755102041,0.2149353027
0.05757369615,0.2146606445
0.05759637188,0.2154541016
0.05761904762,0.2150878906
0.05764172336,0.214630127
0.05766439909,0.2153320312
0.05768707483,0.2152099609
0.05770975057,0.215423584
0.0577324263,0.2152404785
0.05775510204,0.2149047852
0.05777777778,0.2154846191
0.05780045351,0.2155456543
0.05782312925,0.2153015137
0.05784580499,0.215637207
0.05786848073,0.2153625488
0.05789115646,0.2151489258
0.0579138322,0.2150268555
0.05793650794,0.2149658203
0.05795918367,0.2149658203
0.05798185941,0.21484375
0.05800453515,0.2145385742
0.05802721088,0.2152709961
0.05804988662,0.2153015137
0.05807256236,0.2158203125
0.0580952381,0.215423584
0.05811791383,0.2150268555
0.05814058957,0.2152709961
0.05816326531,0.21484375
0.05818594104,0.2149353027
0.05820861678,0.21484375
0.05823129252,0.2151184082
0.05825396825,0.2154846191
0.05827664399,0.2152404785
0.05829931973,0.2152404785
0.05832199546,0.2153625488
0.0583446712,0.2149963379
0.05836734694,0.2145080566
0.05839002268,0.2154846191
0.05841269841,0.2149963379
0.05843537415,0.2155151367
0.05845804989,0.2153930664
0.05848072562,0.2152404785
0.05850340136,0.2157592773
0.0585260771,0.2151489258
0.05854875283,0.21484375
0.05857142857,0.2150268555
0.05859410431,0.2151489258
0.05861678005,0.2155151367
0.05863945578,0.2157897949
0.05866213152,0.2147521973
0.05868480726,0.21484375
0.05870748299,0.2155151367
0.05873015873,0.2150878906
0.05875283447,0.2149963379
0.0587755102,0.2146606445
0.05879818594,0.2154846191
0.05882086168,0.2149658203
0.05884353741,0.2147827148
0.05886621315,0.216583252
0.05888888889,0.2153320312
0.05891156463,0.2151184082
0.05893424036,0.2154846191
0.0589569161,0.2150878906
0.05897959184,0.214050293
0.05900226757,0.2146911621
0.05902494331,0.2158203125
0.05904761905,0.2147216797
0.05907029478,0.2154846191
0.05909297052,0.215057373
0.05911564626,0.2153930664
0.059138322,0.2149353027
0.05916099773,0.215637207
0.05918367347,0.2154541016
0.05920634921,0.2147827148
0.05922902494,0.215637207
0.05925170068,0.215423584
0.05927437642,0.2151184082
0.05929705215,0.2159118652
0.05931972789,0.2157287598
0.05934240363,0.2156982422
0.05936507937,0.21484375
0.0593877551,0.2145385742
0.05941043084,0.2145080566
0.05943310658,0.2146911621
0.05945578231,0.2148132324
0.05947845805,0.2151184082
0.05950113379,0.215423584
0.05952380952,0.2153320312
0.05954648526,0.2151794434
0.059569161,0.2149047852
0.05959183673,0.2148132324
0.05961451247,0.215057373
0.05963718821,0.2149047852
0.05965986395,0.215057373
0.05968253968,0.2145690918
0.05970521542,0.2154846191
0.05972789116,0.2156066895
0.05975056689,0.2146911621
0.05977324263,0.2149963379
0.05979591837,0.2144165039
0.0598185941,0.2144775391
0.05984126984,0.2150268555
0.05986394558,0.2158813477
0.05988662132,0.215057373
0.05990929705,0.21484375
0.05993197279,0.2146606445
0.05995464853,0.2145080566
0.05997732426,0.2143859863
0.06,0.2139587402
0.06002267574,0.2142333984
0.06004535147,0.2152404785
0.06006802721,0.2159118652
0.06009070295,0.2156677246
0.06011337868,0.2151184082
0.06013605442,0.214630127
0.06015873016,0.2152404785
0.0601814059,0.2154846191
0.06020408163,0.2145996094
0.06022675737,0.2147827148
0.06024943311,0.2146911621
0.06027210884,0.2146606445
0.06029478458,0.2149963379
0.06031746032,0.2152709961
0.06034013605,0.2145690918
0.06036281179,0.2149047852
0.06038548753,0.2153015137
0.06040816327,0.2149047852
0.060430839,0.2153320312
0.06045351474,0.2153015137
0.06047619048,0.215057373
0.06049886621,0.2149658203
0.06052154195,0.215423584
0.06054421769,0.215057373
0.06056689342,0.21484375
0.06058956916,0.2147827148
0.0606122449,0.2152709961
0.06063492063,0.2156677246
0.06065759637,0.2154541016
0.06068027211,0.2148742676
0.06070294785,0.2149353027
0.06072562358,0.2151794434
0.06074829932,0.2153015137
0.06077097506,0.2152099609
0.06079365079,0.2149658203
0.06081632653,0.216003418
0.06083900227,0.2149047852
0.060861678,0.2150268555
0.06088435374,0.2152099609
0.06090702948,0.2148742676
0.06092970522,0.2151489258
0.06095238095,0.2153625488
0.06097505669,0.214263916
0.06099773243,0.2142028809
0.06102040816,0.2147521973
0.0610430839,0.2151184082
0.06106575964,0.2149658203
0.06108843537,0.2151794434
0.06111111111,0.2150878906
0.06113378685,0.2150268555
0.06115646259,0.2149353027
0.06117913832,0.2142028809
0.06120181406,0.2145690918
0.0612244898,0.2147216797
0.06124716553,0.2146606445
0.06126984127,0.2146911621
0.06129251701,0.2148132324
0.06131519274,0.2155761719
0.06133786848,0.2151184082
0.06136054422,0.2149963379
0.06138321995,0.2152099609
0.06140589569,0.2153015137
0.06142857143,0.2154846191
0.06145124717,0.215057373
0.0614739229,0.2146911621
0.06149659864,0.2151794434
0.06151927438,0.2151489258
0.06154195011,0.2149658203
0.06156462585,0.2153625488
0.06158730159,0.2157287598
0.06160997732,0.2150878906
0.06163265306,0.2146606445
0.0616553288,0.2151794434
0.06167800454,0.2151794434
0.06170068027,0.2153015137
0.06172335601,0.2153625488
0.06174603175,0.215423584
0.06176870748,0.2155151367
0.06179138322,0.2151184082
0.06181405896,0.2153015137
0.06183673469,0.215057373
0.06185941043,0.2153320312
0.06188208617,0.2152099609
0.0619047619,0.2144775391
0.06192743764,0.2146606445
0.06195011338,0.2152099609
0.06197278912,0.2145996094
0.06199546485,0.2134094238
0.06201814059,0.2141723633
0.06204081633,0.2143859863
0.06206349206,0.2144165039
0.0620861678,0.2153320312
0.06210884354,0.2149353027
0.06213151927,0.2152709961
0.06215419501,0.2148742676
0.06217687075,0.21484375
0.06219954649,0.2152404785
0.06222222222,0.2148742676
0.06224489796,0.2151184082
0.0622675737,0.2149047852
0.06229024943,0.2147827148
0.06231292517,0.2151184082
0.06233560091,0.2152099609
0.06235827664,0.2148132324
0.06238095238,0.2149658203
0.06240362812,0.2155761719
0.06242630385,0.2156066895
0.06244897959,0.2151489258
0.06247165533,0.2153320312
0.06249433107,0.2159423828
0.0625170068,0.21484375
0.06253968254,0.2149658203
0.06256235828,0.2152099609
0.06258503401,0.2151794434
0.06260770975,0.2146606445
0.06263038549,0.214630127
0.06265306122,0.2150268555
0.06267573696,0.2151794434
0.0626984127,0.2149963379
0.06272108844,0.2145385742
0.06274376417,0.2151184082
0.06276643991,0.2153930664
0.06278911565,0.215057373
0.06281179138,0.2155151367
0.06283446712,0.2149047852
0.06285714286,0.2149963379
0.06287981859,0.2161254883
0.06290249433,0.2153320312
0.06292517007,0.2151184082
0.0629478458,0.2152099609
0.06297052154,0.215057373
0.06299319728,0.2143249512
0.06301587302,0.2150268555
0.06303854875,0.2152099609
0.06306122449,0.2144775391
0.06308390023,0.2157287598
0.06310657596,0.2154541016
0.0631292517,0.2149963379
0.06315192744,0.2150878906
0.06317460317,0.2149047852
0.06319727891,0.2144775391
0.06321995465,0.2146911621
0.06324263039,0.2152709961
0.06326530612,0.2153015137
0.06328798186,0.2153320312
0.0633106576,0.2155456543
0.06333333333,0.2155456543
0.06335600907,0.2149353027
0.06337868481,0.2148742676
0.06340136054,0.2156677246
0.06342403628,0.2151794434
0.06344671202,0.2151489258
0.06346938776,0.2149353027
0.06349206349,0.2142028809
0.06351473923,0.2153320312
0.06353741497,0.2153320312
0.0635600907,0.2153625488
0.06358276644,0.2148132324
0.06360544218,0.215057373
0.06362811791,0.2151794434
0.06365079365,0.2152404785
0.06367346939,0.2153015137
0.06369614512,0.2149047852
0.06371882086,0.2152709961
0.0637414966,0.2151184082
0.06376417234,0.2154541016
0.06378684807,0.2149353027
0.06380952381,0.2152709961
0.06383219955,0.2153930664
0.06385487528,0.2156677246
0.06387755102,0.2161254883
0.06390022676,0.2146606445
0.06392290249,0.2149047852
0.06394557823,0.2149353027
0.06396825397,0.2146606445
0.06399092971,0.2141113281
0.06401360544,0.2151794434
0.06403628118,0.2154846191
0.06405895692,0.2153015137
0.06408163265,0.2150268555
0.06410430839,0.2151184082
0.06412698413,0.2156982422
0.06414965986,0.2149353027
0.0641723356,0.2142333984
0.06419501134,0.2148132324
0.06421768707,0.2152404785
0.06424036281,0.2152709961
0.06426303855,0.2153930664
0.06428571429,0.2149658203
0.06430839002,0.2150268555
0.06433106576,0.215423584
0.0643537415,0.2145690918
0.06437641723,0.2155761719
0.06439909297,0.2152709961
0.06442176871,0.2146911621
0.06444444444,0.2143859863
0.06446712018,0.2142028809
0.06448979592,0.2147827148
0.06451247166,0.2152404785
0.06453514739,0.2149353027
0.06455782313,0.2156066895
0.06458049887,0.2153015137
0.0646031746,0.2152099609
0.06462585034,0.2155151367
0.06464852608,0.2149353027
0.06467120181,0.2152404785
0.06469387755,0.2155456543
0.06471655329,0.2152709961
0.06473922902,0.2152709961
0.06476190476,0.2159729004
0.0647845805,0.2155761719
0.06480725624,0.2151489258
0.06482993197,0.2155456543
0.06485260771,0.2156982422
0.06487528345,0.2158203125
0.06489795918,0.2156677246
0.06492063492,0.2148742676
0.06494331066,0.2149047852
0.06496598639,0.2145080566
0.06498866213,0.2145996094
0.06501133787,0.2149047852
0.06503401361,0.215057373
0.06505668934,0.2149047852
0.06507936508,0.2152404785
0.06510204082,0.2153625488
0.06512471655,0.2151794434
0.06514739229,0.2153625488
0.06517006803,0.2150878906
0.06519274376,0.2147216797
0.0652154195,0.2152099609
0.06523809524,0.2151184082
0.06526077098,0.2148132324
0.06528344671,0.2150268555
0.06530612245,0.2148132324
0.06532879819,0.2150268555
0.06535147392,0.2152099609
0.06537414966,0.2145690918
0.0653968254,0.2147521973
0.06541950113,0.2145385742
0.06544217687,0.2148742676
0.06546485261,0.2153930664
0.06548752834,0.2150878906
0.06551020408,0.2154846191
0.06553287982,0.2149963379
0.06555555556,0.2147521973
0.06557823129,0.215423584
0.06560090703,0.21484375
0.06562358277,0.2145996094
0.0656462585,0.215057373
0.06566893424,0.2153320312
0.06569160998,0.2147827148
0.06571428571,0.2148132324
0.06573696145,0.2151489258
0.06575963719,0.214630127
0.06578231293,0.2149658203
0.06580498866,0.214050293
0.0658276644,0.2141723633
0.06585034014,0.2151184082
0.06587301587,0.2153930664
0.06589569161,0.2146606445
0.06591836735,0.2148132324
0.06594104308,0.2145080566
0.06596371882,0.2140808105
0.06598639456,0.2144165039
0.06600907029,0.2145996094
0.06603174603,0.2148132324
0.06605442177,0.2147216797
0.06607709751,0.2145385742
0.06609977324,0.2148132324
0.06612244898,0.2150878906
0.06614512472,0.2149658203
0.06616780045,0.2149353027
0.06619047619,0.2142028809
0.06621315193,0.2151184082
0.06623582766,0.2152099609
0.0662585034,0.2152099609
0.06628117914,0.215637207
0.06630385488,0.2147521973
0.06632653061,0.2150878906
0.06634920635,0.2150268555
0.06637188209,0.2149658203
0.06639455782,0.2152404785
0.06641723356,0.215423584
0.0664399093,0.215057373
0.06646258503,0.2152709961
0.06648526077,0.2145690918
0.06650793651,0.2144775391
0.06653061224,0.2149047852
0.06655328798,0.2152404785
0.06657596372,0.2152709961
0.06659863946,0.2148742676
0.06662131519,0.2149353027
0.06664399093,0.2145690918
0.06666666667,0.2146606445
0.0666893424,0.21484375
0.06671201814,0.2153930664
0.06673469388,0.2149353027
0.06675736961,0.2151489258
0.06678004535,0.2152404785
0.06680272109,0.2152404785
0.06682539683,0.2144470215
0.06684807256,0.2149353027
0.0668707483,0.2154541016
0.06689342404,0.2147521973
0.06691609977,0.2149963379
0.06693877551,0.2145996094
0.06696145125,0.2149047852
0.06698412698,0.2147521973
0.06700680272,0.2149047852
0.06702947846,0.2150268555
0.0670521542,0.2149658203
0.06707482993,0.2152404785
0.06709750567,0.2148132324
0.06712018141,0.2149047852
0.06714285714,0.2153015137
0.06716553288,0.2151489258
0.06718820862,0.2150268555
0.06721088435,0.2152709961
0.06723356009,0.2161865234
0.06725623583,0.2150878906
0.06727891156,0.2151489258
0.0673015873,0.2154541016
0.06732426304,0.2152404785
0.06734693878,0.2155456543
0.06736961451,0.2145385742
0.06739229025,0.215057373
0.06741496599,0.2153930664
0.06743764172,0.2150878906
0.06746031746,0.2146911621
0.0674829932,0.2153930664
0.06750566893,0.2153625488
0.06752834467,0.2154846191
0.06755102041,0.215057373
0.06757369615,0.2146606445
0.06759637188,0.2152709961
0.06761904762,0.2157897949
0.06764172336,0.2150268555
0.06766439909,0.2149353027
0.06768707483,0.2159729004
0.06770975057,0.2153625488
0.0677324263,0.2152404785
0.06775510204,0.2158203125
0.06777777778,0.21484375
0.06780045351,0.2152099609
0.06782312925,0.2155151367
0.06784580499,0.2146911621
0.06786848073,0.2157897949
0.06789115646,0.2155456543
0.0679138322,0.2149658203
0.06793650794,0.2151794434
0.06795918367,0.2156982422
0.06798185941,0.2145996094
0.06800453515,0.2142333984
0.06802721088,0.215637207
0.06804988662,0.2155456543
0.06807256236,0.2151184082
0.0680952381,0.2151489258
0.06811791383,0.2152404785
0.06814058957,0.2153320312
0.06816326531,0.2145690918
0.06818594104,0.2149658203
0.06820861678,0.2153015137
0.06823129252,0.2153015137
0.06825396825,0.2157287598
0.06827664399,0.2158203125
0.06829931973,0.2153930664
0.06832199546,0.2147827148
0.0683446712,0.2145690918
0.06836734694,0.2145690918
0.06839002268,0.2149658203
0.06841269841,0.2145996094
0.06843537415,0.2153625488
0.06845804989,0.2159729004
0.06848072562,0.2150878906
0.06850340136,0.2151184082
0.0685260771,0.2160644531
0.06854875283,0.215423584
0.06857142857,0.2156677246
0.06859410431,0.2149353027
0.06861678005,0.2148742676
0.06863945578,0.2150878906
0.06866213152,0.2146606445
0.06868480726,0.2151794434
0.06870748299,0.2149658203
0.06873015873,0.2148132324
0.06875283447,0.2147216797
0.0687755102,0.2149963379
0.06879818594,0.2148742676
0.06882086168,0.2149658203
0.06884353741,0.2160949707
0.06886621315,0.2158813477
0.06888888889,0.2149963379
0.06891156463,0.214630127
0.06893424036,0.2153015137
0.0689569161,0.2155456543
0.06897959184,0.215423584
0.06900226757,0.2153930664
0.06902494331,0.2149047852
0.06904761905,0.2158813477
0.06907029478,0.2154846191
0.06909297052,0.2150878906
0.06911564626,0.2153930664
0.069138322,0.2152404785
0.06916099773,0.2152099609
0.06918367347,0.2157897949
0.06920634921,0.2147827148
0.06922902494,0.2153625488
0.06925170068,0.2155151367
0.06927437642,0.215057373
0.06929705215,0.2146911621
0.06931972789,0.2138671875
0.06934240363,0.2156066895
0.06936507937,0.2153625488
0.0693877551,0.2150878906
0.06941043084,0.2151489258
0.06943310658,0.215423584
0.06945578231,0.2159423828
0.06947845805,0.2153015137
0.06950113379,0.2153930664
0.06952380952,0.2149353027
0.06954648526,0.2149047852
0.069569161,0.2152404785
0.06959183673,0.2146911621
0.06961451247,0.2151489258
0.06963718821,0.2148132324
0.06965986395,0.2151489258
0.06968253968,0.2150268555
0.06970521542,0.2145080566
0.06972789116,0.2147827148
0.06975056689,0.2155151367
0.06977324263,0.2155151367
0.06979591837,0.2153015137
0.0698185941,0.2151794434
0.06984126984,0.2155456543
0.06986394558,0.2158508301
0.06988662132,0.2147216797
0.06990929705,0.2156677246
0.06993197279,0.2156982422
0.06995464853,0.215057373
0.06997732426,0.2149658203
0.07,0.214630127
0.07002267574,0.2147521973
0.07004535147,0.2147521973
0.07006802721,0.2151794434
0.07009070295,0.2152099609
0.07011337868,0.2153015137
0.07013605442,0.2143859863
0.07015873016,0.2150268555
0.0701814059,0.2153015137
0.07020408163,0.2155151367
0.07022675737,0.2158508301
0.07024943311,0.2148132324
0.07027210884,0.21484375
0.07029478458,0.2152099609
0.07031746032,0.215423584
0.07034013605,0.2154846191
0.07036281179,0.2147216797
0.07038548753,0.2150878906
0.07040816327,0.2149353027
0.070430839,0.2151184082
0.07045351474,0.2152709961
0.07047619048,0.2153625488
0.07049886621,0.2152404785
0.07052154195,0.2150878906
0.07054421769,0.2155151367
0.07056689342,0.2149047852
0.07058956916,0.2151794434
0.0706122449,0.2155456543
0.07063492063,0.2151184082
0.07065759637,0.2147827148
0.07068027211,0.2147216797
0.07070294785,0.2148742676
0.07072562358,0.2157592773
0.07074829932,0.2151184082
0.07077097506,0.2149047852
0.07079365079,0.2147827148
0.07081632653,0.2149353027
0.07083900227,0.2155151367
0.070861678,0.2156982422
0.07088435374,0.2154846191
0.07090702948,0.2153930664
0.07092970522,0.2156982422
0.07095238095,0.2154846191
0.07097505669,0.2146911621
0.07099773243,0.214630127
0.07102040816,0.2152099609
0.0710430839,0.2158203125
0.07106575964,0.2153625488
0.07108843537,0.2148132324
0.07111111111,0.2152099609
0.07113378685,0.2146911621
0.07115646259,0.2151489258
0.07117913832,0.2144775391
0.07120181406,0.2142028809
0.0712244898,0.2151489258
0.07124716553,0.2147827148
0.07126984127,0.2149047852
0.07129251701,0.2149353027
0.07131519274,0.21484375
0.07133786848,0.2149658203
0.07136054422,0.2152709961
0.07138321995,0.2153015137
0.07140589569,0.2155151367
0.07142857143,0.2155456543
0.07145124717,0.2145690918
0.0714739229,0.2153625488
0.07149659864,0.2161254883
0.07151927438,0.2154541016
0.07154195011,0.215423584
0.07156462585,0.2160339355
0.07158730159,0.2156982422
0.07160997732,0.2152709961
0.07163265306,0.2156982422
0.0716553288,0.2152404785
0.07167800454,0.2155456543
0.07170068027,0.215423584
0.07172335601,0.2157592773
0.07174603175,0.2155456543
0.07176870748,0.2151184082
0.07179138322,0.2155456543
0.07181405896,0.2153625488
0.07183673469,0.2153320312
0.07185941043,0.2154846191
0.07188208617,0.2149963379
0.0719047619,0.2154541016
0.07192743764,0.2162475586
0.07195011338,0.2153320312
0.07197278912,0.2154541016
0.07199546485,0.2152404785
0.07201814059,0.2148742676
0.07204081633,0.2147521973
0.07206349206,0.2144775391
0.0720861678,0.2149963379
0.07210884354,0.2151489258
0.07213151927,0.215057373
0.07215419501,0.2151794434
0.07217687075,0.2156066895
0.07219954649,0.2151794434
0.07222222222,0.2147521973
0.07224489796,0.2151794434
0.0722675737,0.2153015137
0.07229024943,0.215423584
0.07231292517,0.2158508301
0.07233560091,0.2155761719
0.07235827664,0.2149047852
0.07238095238,0.2154541016
0.07240362812,0.2154541016
0.07242630385,0.2153625488
0.07244897959,0.2152709961
0.07247165533,0.2150268555
0.07249433107,0.2154846191
0.0725170068,0.2157287598
0.07253968254,0.2158508301
0.07256235828,0.2153625488
0.07258503401,0.2156982422
0.07260770975,0.2152709961
0.07263038549,0.2153015137
0.07265306122,0.2152099609
0.07267573696,0.2153320312
0.0726984127,0.2159118652
0.07272108844,0.2151184082
0.07274376417,0.2152709961
0.07276643991,0.2154846191
0.07278911565,0.2160339355
0.07281179138,0.2155151367
0.07283446712,0.2149963379
0.07285714286,0.2156982422
0.07287981859,0.2154541016
0.07290249433,0.2149963379
0.07292517007,0.2149353027
0.0729478458,0.215057373
0.07297052154,0.215423584
0.07299319728,0.2150878906
0.07301587302,0.2149353027
0.07303854875,0.2158203125
0.07306122449,0.2157897949
0.07308390023,0.2156066895
0.07310657596,0.2157592773
0.0731292517,0.2155151367
0.07315192744,0.215423584
0.07317460317,0.2150268555
0.07319727891,0.2152709961
0.07321995465,0.215423584
0.07324263039,0.2154541016
0.07326530612,0.2151794434
0.07328798186,0.2152709961
0.0733106576,0.2151489258
0.07333333333,0.2152099609
0.07335600907,0.2153015137
0.07337868481,0.2152099609
0.07340136054,0.2147521973
0.07342403628,0.2155151367
0.07344671202,0.2158813477
0.07346938776,0.2149658203
0.07349206349,0.215423584
0.07351473923,0.2149658203
0.07353741497,0.2153320312
0.0735600907,0.2150878906
0.07358276644,0.2150878906
0.07360544218,0.2159729004
0.07362811791,0.2153320312
0.07365079365,0.2154541016
0.07367346939,0.2153320312
0.07369614512,0.2150878906
0.07371882086,0.2153015137
0.0737414966,0.215057373
0.07376417234,0.2149353027
0.07378684807,0.2149353027
0.07380952381,0.2153015137
0.07383219955,0.215057373
0.07385487528,0.2158813477
0.07387755102,0.2154846191
0.07390022676,0.2152709961
0.07392290249,0.2156677246
0.07394557823,0.2150878906
0.07396825397,0.2154846191
0.07399092971,0.2149963379
0.07401360544,0.2150268555
0.07403628118,0.2161560059
0.07405895692,0.2158508301
0.07408163265,0.2162475586
0.07410430839,0.2160644531
0.07412698413,0.2156982422
0.07414965986,0.2160644531
0.0741723356,0.2155456543
0.07419501134,0.2156066895
0.07421768707,0.2152099609
0.07424036281,0.2147521973
0.07426303855,0.2149963379
0.07428571429,0.21484375
0.07430839002,0.2150878906
0.07433106576,0.2156066895
0.0743537415,0.2153930664
0.07437641723,0.2151489258
0.07439909297,0.2150268555
0.07442176871,0.2151184082
0.07444444444,0.2153625488
0.07446712018,0.2154846191
0.07448979592,0.2153625488
0.07451247166,0.2149658203
0.07453514739,0.2153015137
0.07455782313,0.2152404785
0.07458049887,0.2152099609
0.0746031746,0.2146911621
0.07462585034,0.2153930664
0.07464852608,0.21484375
0.07467120181,0.2149963379
0.07469387755,0.2156677246
0.07471655329,0.2148132324
0.07473922902,0.2155761719
0.07476190476,0.2151489258
0.0747845805,0.2152709961
0.07480725624,0.2154541016
0.07482993197,0.2153625488
0.07485260771,0.2153625488
0.07487528345,0.2150878906
0.07489795918,0.2153015137
0.07492063492,0.2157897949
0.07494331066,0.2155151367
0.07496598639,0.2141418457
0.07498866213,0.2145080566
0.07501133787,0.2152404785
0.07503401361,0.2149658203
0.07505668934,0.215057373
0.07507936508,0.2150268555
0.07510204082,0.2155151367
0.07512471655,0.2157592773
0.07514739229,0.2150268555
0.07517006803,0.2154541016
0.07519274376,0.2159118652
0.0752154195,0.215423584
0.07523809524,0.2153930664
0.07526077098,0.2153320312
0.07528344671,0.2150268555
0.07530612245,0.2153930664
0.07532879819,0.2153015137
0.07535147392,0.2147216797
0.07537414966,0.2153625488
0.0753968254,0.2147216797
0.07541950113,0.215423584
0.07544217687,0.2149047852
0.07546485261,0.2148132324
0.07548752834,0.2155456543
0.07551020408,0.215057373
0.07553287982,0.215057373
0.07555555556,0.2148132324
0.07557823129,0.2153320312
0.07560090703,0.2152099609
0.07562358277,0.2151794434
0.0756462585,0.2152709961
0.07566893424,0.2156066895
0.07569160998,0.2157592773
0.07571428571,0.2152404785
0.07573696145,0.2147827148
0.07575963719,0.2150268555
0.07578231293,0.2149963379
0.07580498866,0.215423584
0.0758276644,0.2155151367
0.07585034014,0.2154541016
0.07587301587,0.2151184082
0.07589569161,0.2149658203
0.07591836735,0.2151489258
0.07594104308,0.2153320312
0.07596371882,0.2152709961
0.07598639456,0.2147827148
0.07600907029,0.2152404785
0.07603174603,0.215423584
0.07605442177,0.2152099609
0.07607709751,0.2151489258
0.07609977324,0.2152709961
0.07612244898,0.2152404785
0.07614512472,0.2149047852
0.07616780045,0.214630127
0.07619047619,0.215057373
0.07621315193,0.2149963379
0.07623582766,0.2152404785
0.0762585034,0.2152404785
0.07628117914,0.2145996094
0.07630385488,0.2153320312
0.07632653061,0.2152099609
0.07634920635,0.2146606445
0.07637188209,0.2145690918
0.07639455782,0.214630127
0.07641723356,0.2143249512
0.0764399093,0.21484375
0.07646258503,0.2153320312
0.07648526077,0.2143859863
0.07650793651,0.2153015137
0.07653061224,0.2150878906
0.07655328798,0.2144775391
0.07657596372,0.2151184082
0.07659863946,0.2150268555
0.07662131519,0.215637207
0.07664399093,0.2159423828
0.07666666667,0.2157287598
0.0766893424,0.2149658203
0.07671201814,0.2145690918
0.07673469388,0.2150268555
0.07675736961,0.2148132324
0.07678004535,0.2151184082
0.07680272109,0.215057373
0.07682539683,0.2154846191
0.07684807256,0.2156677246
0.0768707483,0.2157592773
0.07689342404,0.2156677246
0.07691609977,0.2160949707
0.07693877551,0.2155456543
0.07696145125,0.2147521973
0.07698412698,0.2149658203
0.07700680272,0.2150268555
0.07702947846,0.2147827148
0.0770521542,0.2151489258
0.07707482993,0.2153320312
0.07709750567,0.2151489258
0.07712018141,0.2149963379
0.07714285714,0.2152404785
0.07716553288,0.2153625488
0.07718820862,0.2151794434
0.07721088435,0.2151489258
0.07723356009,0.2147521973
0.07725623583,0.2152404785
0.07727891156,0.2147827148
0.0773015873,0.215423584
0.07732426304,0.2155761719
0.07734693878,0.2152404785
0.07736961451,0.2149353027
0.07739229025,0.2146911621
0.07741496599,0.2154541016
0.07743764172,0.2148132324
0.07746031746,0.2159118652
0.0774829932,0.2151184082
0.07750566893,0.2149658203
0.07752834467,0.2149047852
0.07755102041,0.2147827148
0.07757369615,0.2147216797
0.07759637188,0.2150268555
0.07761904762,0.2149353027
0.07764172336,0.2149353027
0.07766439909,0.2150878906
0.07768707483,0.2155151367
0.07770975057,0.2150878906
0.0777324263,0.2158203125
0.07775510204,0.2153930664
0.07777777778,0.2149047852
0.07780045351,0.2146606445
0.07782312925,0.2145385742
0.07784580499,0.2153625488
0.07786848073,0.2147827148
0.07789115646,0.2151794434
0.0779138322,0.215423584
0.07793650794,0.2151794434
0.07795918367,0.2152099609
0.07798185941,0.2151184082
0.07800453515,0.2149047852
0.07802721088,0.2150878906
0.07804988662,0.2145690918
0.07807256236,0.2149658203
0.0780952381,0.2154541016
0.07811791383,0.2151794434
0.07814058957,0.2149658203
0.07816326531,0.2151184082
0.07818594104,0.2151184082
0.07820861678,0.2145996094
0.07823129252,0.2156066895
0.07825396825,0.215423584
0.07827664399,0.215057373
0.07829931973,0.2155761719
0.07832199546,0.2146911621
0.0783446712,0.2150878906
0.07836734694,0.2154846191
0.07839002268,0.215637207
0.07841269841,0.2153625488
0.07843537415,0.2151489258
0.07845804989,0.2149658203
0.07848072562,0.215057373
0.07850340136,0.2153625488
0.0785260771,0.2149353027
0.07854875283,0.2152404785
0.07857142857,0.2149658203
0.07859410431,0.2147827148
0.07861678005,0.2149353027
0.07863945578,0.21484375
0.07866213152,0.2148742676
0.07868480726,0.2149353027
0.07870748299,0.2152709961
0.07873015873,0.2153320312
0.07875283447,0.2153320312
0.0787755102,0.2158203125
0.07879818594,0.2159729004
0.07882086168,0.2153625488
0.07884353741,0.2155761719
0.07886621315,0.2155151367
0.07888888889,0.2160339355
0.07891156463,0.2160339355
0.07893424036,0.2152709961
0.0789569161,0.2154541016
0.07897959184,0.214630127
0.07900226757,0.2143554688
0.07902494331,0.215423584
0.07904761905,0.2156066895
0.07907029478,0.2155456543
0.07909297052,0.2153015137
0.07911564626,0.2150878906
0.079138322,0.2147827148
0.07916099773,0.2154846191
0.07918367347,0.2152404785
0.07920634921,0.2145385742
0.07922902494,0.2156677246
0.07925170068,0.2155151367
0.07927437642,0.2153930664
0.07929705215,0.2151184082
0.07931972789,0.214630127
0.07934240363,0.2152709961
0.07936507937,0.2156982422
0.0793877551,0.2151489258
0.07941043084,0.2150878906
0.07943310658,0.215637207
0.07945578231,0.2155761719
0.07947845805,0.2151794434
0.07950113379,0.2152709961
0.07952380952,0.214630127
0.07954648526,0.21484375
0.079569161,0.2153930664
0.07959183673,0.2159423828
0.07961451247,0.215637207
0.07963718821,0.2152709961
0.07965986395,0.2149963379
0.07968253968,0.2150878906
0.07970521542,0.2148742676
0.07972789116,0.2152709961
0.07975056689,0.2146911621
0.07977324263,0.2151794434
0.07979591837,0.2150878906
0.0798185941,0.2149047852
0.07984126984,0.2156677246
0.07986394558,0.2163085938
0.07988662132,0.2156982422
0.07990929705,0.2145996094
0.07993197279,0.2151794434
0.07995464853,0.215057373
0.07997732426,0.2139587402
0.08,0.2143249512
0.08002267574,0.2145690918
0.08004535147,0.2145690918
0.08006802721,0.2155151367
0.08009070295,0.2154846191
0.08011337868,0.2154541016
0.08013605442,0.2152099609
0.08015873016,0.2149963379
0.0801814059,0.215637207
0.08020408163,0.2150268555
0.08022675737,0.2153930664
0.08024943311,0.2156677246
0.08027210884,0.2152099609
0.08029478458,0.2153320312
0.08031746032,0.2156066895
0.08034013605,0.215423584
0.08036281179,0.2149047852
0.08038548753,0.2155456543
0.08040816327,0.2150268555
0.080430839,0.215057373
0.08045351474,0.215423584
0.08047619048,0.2149658203
0.08049886621,0.2152099609
0.08052154195,0.2148132324
0.08054421769,0.2149047852
0.08056689342,0.2152099609
0.08058956916,0.2149047852
0.0806122449,0.21484375
0.08063492063,0.2152099609
0.08065759637,0.2144470215
0.08068027211,0.2151489258
0.08070294785,0.2152404785
0.08072562358,0.2158203125
0.08074829932,0.2156982422
0.08077097506,0.2151489258
0.08079365079,0.2157287598
0.08081632653,0.2157592773
0.08083900227,0.2152709961
0.080861678,0.2156066895
0.08088435374,0.2157592773
0.08090702948,0.21484375
0.08092970522,0.214630127
0.08095238095,0.2149658203
0.08097505669,0.2142944336
0.08099773243,0.2145690918
0.08102040816,0.2154846191
0.0810430839,0.2152709961
0.08106575964,0.2151794434
0.08108843537,0.215057373
0.08111111111,0.2144165039
0.08113378685,0.2151184082
0.08115646259,0.2155151367
0.08117913832,0.2152099609
0.08120181406,0.2149963379
0.0812244898,0.2145080566
0.08124716553,0.2154846191
0.08126984127,0.2149047852
0.08129251701,0.2143249512
0.08131519274,0.2150268555
0.08133786848,0.2146911621
0.08136054422,0.2152709961
0.08138321995,0.2152099609
0.08140589569,0.2149047852
0.08142857143,0.2149658203
0.08145124717,0.2152404785
0.0814739229,0.2147827148
0.08149659864,0.2151794434
0.08151927438,0.2155761719
0.08154195011,0.2153625488
0.08156462585,0.2149963379
0.08158730159,0.2154846191
0.08160997732,0.2155761719
0.08163265306,0.2153625488
0.0816553288,0.2148132324
0.08167800454,0.2145690918
0.08170068027,0.2149963379
0.08172335601,0.2145690918
0.08174603175,0.2148742676
0.08176870748,0.2152709961
0.08179138322,0.2152709961
0.08181405896,0.2156982422
0.08183673469,0.2146911621
0.08185941043,0.2159118652
0.08188208617,0.2159118652
0.0819047619,0.215423584
0.08192743764,0.2150878906
0.08195011338,0.215057373
0.08197278912,0.2150878906
0.08199546485,0.2143554688
0.08201814059,0.2149047852
0.08204081633,0.2153625488
0.08206349206,0.2157592773
0.0820861678,0.2152709961
0.08210884354,0.2151489258
0.08213151927,0.2151184082
0.08215419501,0.215637207
0.08217687075,0.2157287598
0.08219954649,0.2150268555
0.08222222222,0.2147827148
0.08224489796,0.2155151367
0.0822675737,0.2152404785
0.08229024943,0.2152709961
0.08231292517,0.2147521973
0.08233560091,0.2149963379
0.08235827664,0.2151184082
0.08238095238,0.2151184082
0.08240362812,0.2153625488
0.08242630385,0.2156066895
0.08244897959,0.2152404785
0.08247165533,0.2154541016
0.08249433107,0.2157897949
0.0825170068,0.2156982422
0.08253968254,0.2157287598
0.08256235828,0.2152404785
0.08258503401,0.2151184082
0.08260770975,0.2153930664
0.08263038549,0.2154541016
0.08265306122,0.2153625488
0.08267573696,0.2155151367
0.0826984127,0.2155151367
0.08272108844,0.2157287598
0.08274376417,0.215637207
0.08276643991,0.2151489258
0.08278911565,0.2153930664
0.08281179138,0.2156066895
0.08283446712,0.2156066895
0.08285714286,0.2155151367
0.08287981859,0.2161560059
0.08290249433,0.2145996094
0.08292517007,0.2145080566
0.0829478458,0.2153625488
0.08297052154,0.2149963379
0.08299319728,0.2145080566
0.08301587302,0.2153625488
0.08303854875,0.2154846191
0.08306122449,0.2156066895
0.08308390023,0.2156066895
0.08310657596,0.2151489258
0.0831292517,0.2149353027
0.08315192744,0.2150878906
0.08317460317,0.215637207
0.08319727891,0.2155761719
0.08321995465,0.2157287598
0.08324263039,0.2151489258
0.08326530612,0.21484375
0.08328798186,0.2152099609
0.0833106576,0.2149047852
0.08333333333,0.2156982422
0.08335600907,0.2153625488
0.08337868481,0.2155456543
0.08340136054,0.2157287598
0.08342403628,0.2159729004
0.08344671202,0.2157592773
0.08346938776,0.2152709961
0.08349206349,0.2150878906
0.08351473923,0.2151184082
0.08353741497,0.2152709961
0.0835600907,0.2155151367
0.08358276644,0.2154846191
0.08360544218,0.2156982422
0.08362811791,0.2153015137
0.08365079365,0.2153930664
0.08367346939,0.2151794434
0.08369614512,0.2152709961
0.08371882086,0.2152404785
0.0837414966,0.2151184082
0.08376417234,0.2157592773
0.08378684807,0.2156982422
0.08380952381,0.2152404785
0.08383219955,0.2155151367
0.08385487528,0.2160949707
0.08387755102,0.2152404785
0.08390022676,0.2147216797
0.08392290249,0.2145385742
0.08394557823,0.2152099609
0.08396825397,0.215057373
0.08399092971,0.2140197754
0.08401360544,0.2146911621
0.08403628118,0.2146606445
0.08405895692,0.2152404785
0.08408163265,0.2149353027
0.08410430839,0.2153320312
0.08412698413,0.2152404785
0.08414965986,0.2149353027
0.0841723356,0.2151794434
0.08419501134,0.214630127
0.08421768707,0.2153015137
0.08424036281,0.2155456543
0.08426303855,0.2157287598
0.08428571429,0.2152404785
0.08430839002,0.215423584
0.08433106576,0.2153320312
0.0843537415,0.2153320312
0.08437641723,0.2158203125
0.08439909297,0.2152099609
0.08442176871,0.2155456543
0.08444444444,0.2149963379
0.08446712018,0.2151184082
0.08448979592,0.2154846191
0.08451247166,0.215057373
0.08453514739,0.2150268555
0.08455782313,0.2145690918
0.08458049887,0.2153930664
0.0846031746,0.2148742676
0.08462585034,0.2150878906
0.08464852608,0.2149963379
0.08467120181,0.2149353027
0.08469387755,0.2152099609
0.08471655329,0.2154541016
0.08473922902,0.2157897949
0.08476190476,0.2153625488
0.0847845805,0.2151489258
0.08480725624,0.215057373
0.08482993197,0.2148132324
0.08485260771,0.2158203125
0.08487528345,0.2159729004
0.08489795918,0.2149047852
0.08492063492,0.2144775391
0.08494331066,0.2144470215
0.08496598639,0.2149353027
0.08498866213,0.2136535645
0.08501133787,0.2143554688
0.08503401361,0.2144470215
0.08505668934,0.2146911621
0.08507936508,0.215423584
0.08510204082,0.2153930664
0.08512471655,0.2151794434
0.08514739229,0.2155761719
0.08517006803,0.2155761719
0.08519274376,0.2151184082
0.0852154195,0.2149963379
0.08523809524,0.2149963379
0.08526077098,0.215057373
0.08528344671,0.2153320312
0.08530612245,0.2155151367
0.08532879819,0.2145385742
0.08535147392,0.2146911621
0.08537414966,0.2153930664
0.0853968254,0.2150268555
0.08541950113,0.214630127
0.08544217687,0.2149353027
0.08546485261,0.2145385742
0.08548752834,0.2145996094
0.08551020408,0.2148742676
0.08553287982,0.2152709961
0.08555555556,0.2154846191
0.08557823129,0.2155151367
0.08560090703,0.2149963379
0.08562358277,0.2145690918
0.0856462585,0.2149353027
0.08566893424,0.2151184082
0.08569160998,0.2145690918
0.08571428571,0.2152404785
0.08573696145,0.215423584
0.08575963719,0.2149963379
0.08578231293,0.2152709961
0.08580498866,0.2150268555
0.0858276644,0.215057373
0.08585034014,0.2155761719
0.08587301587,0.2165222168
0.08589569161,0.2157592773
0.08591836735,0.215057373
0.08594104308,0.2153015137
0.08596371882,0.2151794434
0.08598639456,0.2144775391
0.08600907029,0.2144775391
0.08603174603,0.2150878906
0.08605442177,0.2151184082
0.08607709751,0.215057373
0.08609977324,0.2153015137
0.08612244898,0.2152709961
0.08614512472,0.2151489258
0.08616780045,0.2150268555
0.08619047619,0.2149963379
0.08621315193,0.2144165039
0.08623582766,0.2148132324
0.0862585034,0.215423584
0.08628117914,0.2149658203
0.08630385488,0.2146911621
0.08632653061,0.2145080566
0.08634920635,0.2141723633
0.08637188209,0.2147827148
0.08639455782,0.2147827148
0.08641723356,0.2150268555
0.0864399093,0.2150268555
0.08646258503,0.2149353027
0.08648526077,0.2152709961
0.08650793651,0.2152709961
0.08653061224,0.2152709961
0.08655328798,0.2153015137
0.08657596372,0.2152709961
0.08659863946,0.2155456543
0.08662131519,0.2149963379
0.08664399093,0.2146606445
0.08666666667,0.2155456543
0.0866893424,0.2154846191
0.08671201814,0.2151184082
0.08673469388,0.2149963379
0.08675736961,0.2154541016
0.08678004535,0.2149047852
0.08680272109,0.2149658203
0.08682539683,0.2150268555
0.08684807256,0.2155456543
0.0868707483,0.2160949707
0.08689342404,0.2151489258
0.08691609977,0.2144470215
0.08693877551,0.2149353027
0.08696145125,0.215423584
0.08698412698,0.2147216797
0.08700680272,0.2141723633
0.08702947846,0.2144165039
0.0870521542,0.2148132324
0.08707482993,0.2144470215
0.08709750567,0.2147827148
0.08712018141,0.2151489258
0.08714285714,0.2151794434
0.08716553288,0.215057373
0.08718820862,0.2149353027
0.08721088435,0.2143859863
0.08723356009,0.2145385742
0.08725623583,0.2151794434
0.08727891156,0.2149047852
0.0873015873,0.2155761719
0.08732426304,0.2157287598
0.08734693878,0.215057373
0.08736961451,0.2145996094
0.08739229025,0.2155456543
0.08741496599,0.2156982422
0.08743764172,0.2151794434
0.08746031746,0.2148742676
0.0874829932,0.2156066895
0.08750566893,0.2151489258
0.08752834467,0.2151794434
0.08755102041,0.2158203125
0.08757369615,0.2150268555
0.08759637188,0.2153015137
0.08761904762,0.21484375
0.08764172336,0.2149353027
0.08766439909,0.2149963379
0.08768707483,0.214630127
0.08770975057,0.2150878906
0.0877324263,0.2153625488
0.08775510204,0.2154846191
0.08777777778,0.2154846191
0.08780045351,0.2151489258
0.08782312925,0.2152099609
0.08784580499,0.21484375
0.08786848073,0.2150878906
0.08789115646,0.2148742676
0.0879138322,0.2141723633
0.08793650794,0.2151794434
0.08795918367,0.2154846191
0.08798185941,0.215057373
0.08800453515,0.2149963379
0.08802721088,0.2147827148
0.08804988662,0.2146606445
0.08807256236,0.215057373
0.0880952381,0.2151184082
0.08811791383,0.2154846191
0.08814058957,0.2152404785
0.08816326531,0.2153320312
0.08818594104,0.2146911621
0.08820861678,0.2149047852
0.08823129252,0.2158813477
0.08825396825,0.2153320312
0.08827664399,0.2153320312
0.08829931973,0.2155151367
0.08832199546,0.2145690918
0.0883446712,0.215423584
0.08836734694,0.2155761719
0.08839002268,0.215423584
0.08841269841,0.2153015137
0.08843537415,0.2150268555
0.08845804989,0.2157592773
0.08848072562,0.2147827148
0.08850340136,0.215057373
0.0885260771,0.215423584
0.08854875283,0.2151184082
0.08857142857,0.2155151367
0.08859410431,0.2159118652
0.08861678005,0.2147521973
0.08863945578,0.2151184082
0.08866213152,0.2155151367
0.08868480726,0.2151184082
0.08870748299,0.2156982422
0.08873015873,0.2146911621
0.08875283447,0.2154541016
0.0887755102,0.2153320312
0.08879818594,0.2153015137
0.08882086168,0.2147521973
0.08884353741,0.215637207
0.08886621315,0.215637207
0.08888888889,0.2147216797
0.08891156463,0.2149353027
0.08893424036,0.2146911621
0.0889569161,0.2147827148
0.08897959184,0.2149658203
0.08900226757,0.2151794434
0.08902494331,0.2152099609
0.08904761905,0.2149047852
0.08907029478,0.2149658203
0.08909297052,0.2147521973
0.08911564626,0.2148132324
0.089138322,0.2150878906
0.08916099773,0.2152709961
0.08918367347,0.2154541016
0.08920634921,0.215637207
0.08922902494,0.2152709961
0.08925170068,0.2155151367
0.08927437642,0.2150878906
0.08929705215,0.2153015137
0.08931972789,0.215423584
0.08934240363,0.2154541016
0.08936507937,0.2149047852
0.0893877551,0.2153320312
0.08941043084,0.2153930664
0.08943310658,0.2146606445
0.08945578231,0.2153015137
0.08947845805,0.215423584
0.08950113379,0.2150878906
0.08952380952,0.2150268555
0.08954648526,0.2163696289
0.089569161,0.2155761719
0.08959183673,0.2156982422
0.08961451247,0.2153320312
0.08963718821,0.215057373
0.08965986395,0.2157897949
0.08968253968,0.2149353027
0.08970521542,0.2151184082
0.08972789116,0.2148132324
0.08975056689,0.215423584
0.08977324263,0.2153320312
0.08979591837,0.2149047852
0.0898185941,0.215637207
0.08984126984,0.2152404785
0.08986394558,0.2155151367
0.08988662132,0.2152099609
0.08990929705,0.2152404785
0.08993197279,0.2153625488
0.08995464853,0.2148132324
0.08997732426,0.2146911621
0.09,0.2148742676
0.09002267574,0.2150268555
0.09004535147,0.2153930664
0.09006802721,0.2150878906
0.09009070295,0.2150878906
0.09011337868,0.2152404785
0.09013605442,0.2154541016
0.09015873016,0.2157592773
0.0901814059,0.2147827148
0.09020408163,0.2144775391
0.09022675737,0.2147521973
0.09024943311,0.2152099609
0.09027210884,0.2148742676
0.09029478458,0.2150878906
0.09031746032,0.2156066895
0.09034013605,0.2151489258
0.09036281179,0.215423584
0.09038548753,0.2154541016
0.09040816327,0.215057373
0.090430839,0.2158203125
0.09045351474,0.2154846191
0.09047619048,0.2153625488
0.09049886621,0.2156066895
0.09052154195,0.2152404785
0.09054421769,0.215637207
0.09056689342,0.2152099609
0.09058956916,0.2152404785
0.0906122449,0.2156066895
0.09063492063,0.2151489258
0.09065759637,0.2147216797
0.09068027211,0.2147216797
0.09070294785,0.2147521973
0.09072562358,0.2156982422
0.09074829932,0.2155456543
0.09077097506,0.2153930664
0.09079365079,0.2153930664
0.09081632653,0.2158203125
0.09083900227,0.2158508301
0.090861678,0.2163085938
0.09088435374,0.2156066895
0.09090702948,0.2152709961
0.09092970522,0.2159729004
0.09095238095,0.2151489258
0.09097505669,0.2153625488
0.09099773243,0.2146911621
0.09102040816,0.2152099609
0.0910430839,0.2155761719
0.09106575964,0.21484375
0.09108843537,0.2157592773
0.09111111111,0.2153930664
0.09113378685,0.2154541016
0.09115646259,0.2157287598
0.09117913832,0.2149963379
0.09120181406,0.2155151367
0.0912244898,0.2158508301
0.09124716553,0.2149658203
0.09126984127,0.2149353027
0.09129251701,0.2155761719
0.09131519274,0.2155456543
0.09133786848,0.2150878906
0.09136054422,0.2152099609
0.09138321995,0.2152404785
0.09140589569,0.2148742676
0.09142857143,0.215637207
0.09145124717,0.2151794434
0.0914739229,0.2149963379
0.09149659864,0.2155151367
0.09151927438,0.2146606445
0.09154195011,0.2147827148
0.09156462585,0.2147216797
0.09158730159,0.2152099609
0.09160997732,0.2154541016
0.09163265306,0.2153015137
0.0916553288,0.2146606445
0.09167800454,0.2154541016
0.09170068027,0.2150878906
0.09172335601,0.2150268555
0.09174603175,0.2151184082
0.09176870748,0.2147216797
0.09179138322,0.2151184082
0.09181405896,0.2152404785
0.09183673469,0.2151489258
0.09185941043,0.2149658203
0.09188208617,0.2145385742
0.0919047619,0.2151184082
0.09192743764,0.2153625488
0.09195011338,0.2146911621
0.09197278912,0.2147827148
0.09199546485,0.2145080566
0.09201814059,0.2146606445
0.09204081633,0.2148132324
0.09206349206,0.215057373
0.0920861678,0.2149353027
0.09210884354,0.2144470215
0.09213151927,0.2152404785
0.09215419501,0.215057373
0.09217687075,0.2150878906
0.09219954649,0.2146911621
0.09222222222,0.2152404785
0.09224489796,0.2151184082
0.0922675737,0.2143859863
0.09229024943,0.214630127
0.09231292517,0.2147216797
0.09233560091,0.2154846191
0.09235827664,0.215057373
0.09238095238,0.2145385742
0.09240362812,0.2152404785
0.09242630385,0.2149047852
0.09244897959,0.2150268555
0.09247165533,0.2152404785
0.09249433107,0.2152709961
0.0925170068,0.2150878906
0.09253968254,0.2149963379
0.09256235828,0.2142944336
0.09258503401,0.2153930664
0.09260770975,0.2153015137
0.09263038549,0.2152709961
0.09265306122,0.2153930664
0.09267573696,0.2151794434
0.0926984127,0.2149963379
0.09272108844,0.214630127
0.09274376417,0.2144470215
0.09276643991,0.214630127
0.09278911565,0.2151184082
0.09281179138,0.2153320312
0.09283446712,0.2149658203
0.09285714286,0.2154846191
0.09287981859,0.2150878906
0.09290249433,0.2146911621
0.09292517007,0.2147216797
0.0929478458,0.2145996094
0.09297052154,0.2154846191
0.09299319728,0.2145996094
0.09301587302,0.214630127
0.09303854875,0.2156066895
0.09306122449,0.215423584
0.09308390023,0.2147521973
0.09310657596,0.2150878906
0.0931292517,0.2149963379
0.09315192744,0.2148742676
0.09317460317,0.215423584
0.09319727891,0.2151184082
0.09321995465,0.2148742676
0.09324263039,0.2147827148
0.09326530612,0.2148742676
0.09328798186,0.2151794434
0.0933106576,0.2149047852
0.09333333333,0.2149963379
0.09335600907,0.2159423828
0.09337868481,0.2152404785
0.09340136054,0.2146606445
0.09342403628,0.2151184082
0.09344671202,0.2151489258
0.09346938776,0.2147521973
0.09349206349,0.2145080566
0.09351473923,0.2151184082
0.09353741497,0.21484375
0.0935600907,0.2142944336
0.09358276644,0.2145996094
0.09360544218,0.2152404785
0.09362811791,0.2156982422
0.09365079365,0.2155151367
0.09367346939,0.2158813477
0.09369614512,0.2153320312
0.09371882086,0.2153015137
0.0937414966,0.2147521973
0.09376417234,0.2149353027
0.09378684807,0.2149353027
0.09380952381,0.2151794434
0.09383219955,0.2152099609
0.09385487528,0.2154541016
0.09387755102,0.2151794434
0.09390022676,0.215057373
0.09392290249,0.2151184082
0.09394557823,0.2143249512
0.09396825397,0.21484375
0.09399092971,0.2147521973
0.09401360544,0.2141418457
0.09403628118,0.2148132324
0.09405895692,0.2154541016
0.09408163265,0.21484375
0.09410430839,0.2147216797
0.09412698413,0.2149963379
0.09414965986,0.215423584
0.0941723356,0.2152709961
0.09419501134,0.214630127
0.09421768707,0.214630127
0.09424036281,0.2149353027
0.09426303855,0.2155151367
0.09428571429,0.214630127
0.09430839002,0.2149353027
0.09433106576,0.2145690918
0.0943537415,0.2141723633
0.09437641723,0.2148742676
0.09439909297,0.2145385742
0.09442176871,0.2151184082
0.09444444444,0.2154846191
0.09446712018,0.2151489258
0.09448979592,0.2157287598
0.09451247166,0.2153930664
0.09453514739,0.2153320312
0.09455782313,0.2151489258
0.09458049887,0.215057373
0.0946031746,0.2153320312
0.09462585034,0.2149047852
0.09464852608,0.2149047852
0.09467120181,0.2149963379
0.09469387755,0.2149963379
0.09471655329,0.2151794434
0.09473922902,0.2156677246
0.09476190476,0.2149047852
0.0947845805,0.2149963379
0.09480725624,0.2154846191
0.09482993197,0.2152709961
0.09485260771,0.2159729004
0.09487528345,0.2155761719
0.09489795918,0.2152099609
0.09492063492,0.2151489258
0.09494331066,0.2148742676
0.09496598639,0.2153625488
0.09498866213,0.2147216797
0.09501133787,0.2144775391
0.09503401361,0.2152404785
0.09505668934,0.2151489258
0.09507936508,0.2151184082
0.09510204082,0.2150878906
0.09512471655,0.2155761719
0.09514739229,0.2152709961
0.09517006803,0.2155151367
0.09519274376,0.2155456543
0.0952154195,0.2153015137
0.09523809524,0.2159118652
0.09526077098,0.2157592773
0.09528344671,0.2152709961
0.09530612245,0.2149353027
0.09532879819,0.2154541016
0.09535147392,0.2149963379
0.09537414966,0.2155456543
0.0953968254,0.2152709961
0.09541950113,0.2155456543
0.09544217687,0.2150878906
0.09546485261,0.215637207
0.09548752834,0.2152404785
0.09551020408,0.2149353027
0.09553287982,0.2153320312
0.09555555556,0.2148742676
0.09557823129,0.21484375
0.09560090703,0.2151489258
0.09562358277,0.2155456543
0.0956462585,0.2153015137
0.09566893424,0.2152404785
0.09569160998,0.2151489258
0.09571428571,0.2149658203
0.09573696145,0.2149658203
0.09575963719,0.2148742676
0.09578231293,0.2150268555
0.09580498866,0.2151489258
0.0958276644,0.2153320312
0.09585034014,0.2156066895
0.09587301587,0.2154541016
0.09589569161,0.2153015137
0.09591836735,0.2154846191
0.09594104308,0.2153930664
0.09596371882,0.215423584
0.09598639456,0.2153015137
0.09600907029,0.2146911621
0.09603174603,0.2153015137
0.09605442177,0.21484375
0.09607709751,0.2150268555
0.09609977324,0.2153930664
0.09612244898,0.2155761719
0.09614512472,0.2155456543
0.09616780045,0.2153930664
0.09619047619,0.2153015137
0.09621315193,0.2154846191
0.09623582766,0.2150878906
0.0962585034,0.2148132324
0.09628117914,0.2146911621
0.09630385488,0.2147521973
0.09632653061,0.2156066895
0.09634920635,0.2150878906
0.09637188209,0.2150268555
0.09639455782,0.2152404785
0.09641723356,0.215057373
0.0964399093,0.2149963379
0.09646258503,0.2150878906
0.09648526077,0.2149047852
0.09650793651,0.2153320312
0.09653061224,0.2151184082
0.09655328798,0.21484375
0.09657596372,0.215057373
0.09659863946,0.2152099609
0.09662131519,0.2150268555
0.09664399093,0.2148742676
0.09666666667,0.215423584
0.0966893424,0.2149963379
0.09671201814,0.2147521973
0.09673469388,0.2157897949
0.09675736961,0.2154846191
0.09678004535,0.2147827148
0.09680272109,0.2152404785
0.09682539683,0.2151794434
0.09684807256,0.2154846191
0.0968707483,0.2157897949
0.09689342404,0.2154846191
0.09691609977,0.2155151367
0.09693877551,0.215057373
0.09696145125,0.2158508301
0.09698412698,0.2150878906
0.09700680272,0.215057373
0.09702947846,0.2158508301
0.0970521542,0.2154846191
0.09707482993,0.2153930664
0.09709750567,0.2155456543
0.09712018141,0.2153625488
0.09714285714,0.2151184082
0.09716553288,0.21484375
0.09718820862,0.2153625488
0.09721088435,0.214630127
0.09723356009,0.2152099609
0.09725623583,0.2155151367
0.09727891156,0.2150268555
0.0973015873,0.2155456543
0.09732426304,0.2147521973
0.09734693878,0.2152709961
0.09736961451,0.2153625488
0.09739229025,0.2153320312
0.09741496599,0.2149963379
0.09743764172,0.2148132324
0.09746031746,0.2151489258
0.0974829932,0.21484375
0.09750566893,0.2157592773
0.09752834467,0.2153015137
0.09755102041,0.2153015137
0.09757369615,0.2156677246
0.09759637188,0.2151489258
0.09761904762,0.2145080566
0.09764172336,0.2151184082
0.09766439909,0.2156677246
0.09768707483,0.2157592773
0.09770975057,0.215423584
0.0977324263,0.2158508301
0.09775510204,0.215423584
0.09777777778,0.215423584
0.09780045351,0.2155456543
0.09782312925,0.2149047852
0.09784580499,0.2152709961
0.09786848073,0.2150878906
0.09789115646,0.2148132324
0.0979138322,0.2159729004
0.09793650794,0.215637207
0.09795918367,0.2155151367
0.09798185941,0.214630127
0.09800453515,0.2146606445
0.09802721088,0.215637207
0.09804988662,0.2153015137
0.09807256236,0.2154541016
0.0980952381,0.2151489258
0.09811791383,0.2153625488
0.09814058957,0.2149658203
0.09816326531,0.2148132324
0.09818594104,0.2152404785
0.09820861678,0.2156677246
0.09823129252,0.2154846191
0.09825396825,0.2146606445
0.09827664399,0.2149353027
0.09829931973,0.2152099609
0.09832199546,0.2147521973
0.0983446712,0.2153625488
0.09836734694,0.2151794434
0.09839002268,0.2147827148
0.09841269841,0.2154846191
0.09843537415,0.2153015137
0.09845804989,0.2153015137
0.09848072562,0.2151184082
0.09850340136,0.214630127
0.0985260771,0.2149353027
0.09854875283,0.2150268555
0.09857142857,0.2144775391
0.09859410431,0.2149658203
0.09861678005,0.2154541016
0.09863945578,0.2147216797
0.09866213152,0.215423584
0.09868480726,0.2153625488
0.09870748299,0.2152709961
0.09873015873,0.2152404785
0.09875283447,0.2152099609
0.0987755102,0.2147216797
0.09879818594,0.215057373
0.09882086168,0.2149658203
0.09884353741,0.2149047852
0.09886621315,0.216217041
0.09888888889,0.2153930664
0.09891156463,0.2153320312
0.09893424036,0.2152404785
0.0989569161,0.2151184082
0.09897959184,0.2144470215
0.09900226757,0.2147827148
0.09902494331,0.2146606445
0.09904761905,0.2147521973
0.09907029478,0.2150878906
0.09909297052,0.2144470215
0.09911564626,0.2145080566
0.099138322,0.215057373
0.09916099773,0.2147827148
0.09918367347,0.2145996094
0.09920634921,0.2145690918
0.09922902494,0.2149353027
0.09925170068,0.2152404785
0.09927437642,0.2151489258
0.09929705215,0.2149353027
0.09931972789,0.2153320312
0.09934240363,0.2148132324
0.09936507937,0.2151794434
0.0993877551,0.2156066895
0.09941043084,0.2153015137
0.09943310658,0.2153015137
0.09945578231,0.2151794434
0.09947845805,0.2159729004
0.09950113379,0.2152404785
0.09952380952,0.2149963379
0.09954648526,0.2152709961
0.099569161,0.2149963379
0.09959183673,0.2158203125
0.09961451247,0.2152404785
0.09963718821,0.2151794434
0.09965986395,0.2150878906
0.09968253968,0.2147521973
0.09970521542,0.2153625488
0.09972789116,0.2148742676
0.09975056689,0.2152709961
0.09977324263,0.2156066895
0.09979591837,0.2147216797
0.0998185941,0.2153930664
0.09984126984,0.2152709961
0.09986394558,0.2157897949
0.09988662132,0.2151794434
0.09990929705,0.214263916
0.09993197279,0.2152709961
0.09995464853,0.2157287598
0.09997732426,0.2144775391
0.1,0.2147827148
0.1000226757,0.2153930664
0.1000453515,0.21484375
0.1000680272,0.2152709961
0.1000907029,0.2152404785
0.1001133787,0.2158203125
0.1001360544,0.2155151367
0.1001587302,0.2151794434
0.1001814059,0.215637207
0.1002040816,0.2154541016
0.1002267574,0.2155456543
0.1002494331,0.2152709961
0.1002721088,0.215423584
0.1002947846,0.2153015137
0.1003174603,0.2149047852
0.1003401361,0.2150878906
0.1003628118,0.2152099609
0.1003854875,0.2155151367
0.1004081633,0.2153625488
0.100430839,0.2148742676
0.1004535147,0.2148742676
0.1004761905,0.2156066895
0.1004988662,0.2158203125
0.100521542,0.2153320312
0.1005442177,0.2152099609
0.1005668934,0.2149658203
0.1005895692,0.2153015137
0.1006122449,0.2150878906
0.1006349206,0.2148132324
0.1006575964,0.2157287598
0.1006802721,0.215637207
0.1007029478,0.21484375
0.1007256236,0.2151184082
0.1007482993,0.2158508301
0.1007709751,0.2158203125
0.1007936508,0.216003418
0.1008163265,0.2152404785
0.1008390023,0.2151184082
0.100861678,0.2162780762
0.1008843537,0.2155151367
0.1009070295,0.2145996094
0.1009297052,0.2148132324
0.100952381,0.215057373
0.1009750567,0.2145080566
0.1009977324,0.2149658203
0.1010204082,0.2150268555
0.1010430839,0.2153320312
0.1010657596,0.2156677246
0.1010884354,0.21484375
0.1011111111,0.2147216797
0.1011337868,0.2156066895
0.1011564626,0.2157287598
0.1011791383,0.2153320312
0.1012018141,0.2153015137
0.1012244898,0.2149353027
0.1012471655,0.2154541016
0.1012698413,0.2155456543
0.101292517,0.2155151367
0.1013151927,0.2154541016
0.1013378685,0.2151184082
0.1013605442,0.2149963379
