time,data
0,-2.480300587e-08
2.083333333e-05,-3.610172072e-08
4.166666667e-05,-4.625044525e-08
6.25e-05,-5.511512313e-08
8.333333333e-05,-6.382291673e-08
0.0001041666667,-7.320055317e-08
0.000125,-8.343340596e-08
0.0001458333333,-9.409098567e-08
0.0001666666667,-1.040503648e-07
0.0001875,-1.13267518e-07
0.0002083333333,-1.219567309e-07
0.0002291666667,-1.314810447e-07
0.00025,-1.425746348e-07
0.0002708333333,-1.5532855e-07
0.0002916666667,-1.691229841e-07
0.0003125,-1.827018963e-07
0.0003333333333,-1.959123352e-07
0.0003541666667,-2.085782995e-07
0.000375,-2.216271184e-07
0.0003958333333,-2.352092281e-07
0.0004166666667,-2.490636746e-07
0.0004375,-2.625349396e-07
0.0004583333333,-2.744958749e-07
0.0004791666667,-2.850373448e-07
0.0005,-2.940417119e-07
0.0005208333333,-3.025664341e-07
0.0005416666667,-3.110084776e-07
0.0005625,-3.197347382e-07
0.0005833333333,-3.287607058e-07
0.0006041666667,-3.374782978e-07
0.000625,-3.459325058e-07
0.0006458333333,-3.535246833e-07
0.0006666666667,-3.608082864e-07
0.0006875,-3.677936604e-07
0.0007083333333,-3.749160271e-07
0.0007291666667,-3.820095458e-07
0.00075,-3.879853523e-07
0.0007708333333,-3.920354175e-07
0.0007916666667,-3.926232921e-07
0.0008125,-3.903118113e-07
0.0008333333333,-3.856277999e-07
0.0008541666667,-3.802555568e-07
0.000875,-3.748955635e-07
0.0008958333333,-3.686920422e-07
0.0009166666667,-3.608212467e-07
0.0009375,-3.497157763e-07
0.0009583333333,-3.36699884e-07
0.0009791666667,-3.23349667e-07
0.001,-3.119557164e-07
0.001020833333,-3.029705056e-07
0.001041666667,-2.940983279e-07
0.0010625,-2.830114454e-07
0.001083333333,-2.671811785e-07
0.001104166667,-2.478539045e-07
0.001125,-2.270449784e-07
0.001145833333,-2.071246854e-07
0.001166666667,-1.879527787e-07
0.0011875,-1.667109188e-07
0.001208333333,-1.408571677e-07
0.001229166667,-1.091530493e-07
0.00125,-7.458131535e-08
0.001270833333,-4.077321591e-08
0.001291666667,-1.096986413e-08
0.0013125,1.536457539e-08
0.001333333333,4.134301079e-08
0.001354166667,6.962560661e-08
0.001375,1.013135957e-07
0.001395833333,1.331381725e-07
0.001416666667,1.625978854e-07
0.0014375,1.878476183e-07
0.001458333333,2.112709439e-07
0.001479166667,2.369603038e-07
0.0015,2.674038058e-07
0.001520833333,3.031561278e-07
0.001541666667,3.403791027e-07
0.0015625,3.7634004e-07
0.001583333333,4.091160122e-07
0.001604166667,4.400013722e-07
0.001625,4.714832187e-07
0.001645833333,5.041046052e-07
0.001666666667,5.372530723e-07
0.0016875,5.673060173e-07
0.001708333333,5.925201663e-07
0.001729166667,6.118809779e-07
0.00175,6.273958775e-07
0.001770833333,6.414501286e-07
0.001791666667,6.556662129e-07
0.0018125,6.709555578e-07
0.001833333333,6.859086739e-07
0.001854166667,7.003752671e-07
0.001875,7.130668678e-07
0.001895833333,7.246219411e-07
0.001916666667,7.35667868e-07
0.0019375,7.465712883e-07
0.001958333333,7.583910246e-07
0.001979166667,7.690903203e-07
0.002,7.776022244e-07
0.002020833333,7.802738651e-07
0.002041666667,7.757931257e-07
0.0020625,7.645642768e-07
0.002083333333,7.486216873e-07
0.002104166667,7.31937746e-07
0.002125,7.149159842e-07
0.002145833333,6.970602726e-07
0.002166666667,6.749650652e-07
0.0021875,6.471123584e-07
0.002208333333,6.157416692e-07
0.002229166667,5.848617661e-07
0.00225,5.597002541e-07
0.002270833333,5.397791938e-07
0.002291666667,5.213904046e-07
0.0023125,4.976832315e-07
0.002333333333,4.651515439e-07
0.002354166667,4.254297323e-07
0.002375,3.836591418e-07
0.002395833333,3.446486403e-07
0.002416666667,3.073002688e-07
0.0024375,2.666346575e-07
0.002458333333,2.161498855e-07
0.002479166667,1.549336162e-07
0.0025,8.829098164e-08
0.002520833333,2.445772118e-08
0.002541666667,-3.013756e-08
0.0025625,-7.730601936e-08
0.002583333333,-1.222362584e-07
0.002604166667,-1.718875495e-07
0.002625,-2.266249197e-07
0.002645833333,-2.817134259e-07
0.002666666667,-3.311420471e-07
0.0026875,-3.720016366e-07
0.002708333333,-4.091949393e-07
0.002729166667,-4.497042596e-07
0.00275,-4.996396115e-07
0.002770833333,-5.58664965e-07
0.002791666667,-6.208942409e-07
0.0028125,-6.8059569e-07
0.002833333333,-7.340400998e-07
0.002854166667,-7.84095846e-07
0.002875,-8.337249824e-07
0.002895833333,-8.854469229e-07
0.002916666667,-9.368307019e-07
0.0029375,-9.830581575e-07
0.002958333333,-1.020422815e-06
0.002979166667,-1.047435262e-06
0.003,-1.067270546e-06
0.003020833333,-1.08347524e-06
0.003041666667,-1.099688802e-06
0.0030625,-1.117424063e-06
0.003083333333,-1.136001742e-06
0.003104166667,-1.154842153e-06
0.003125,-1.171794679e-06
0.003145833333,-1.187175371e-06
0.003166666667,-1.200508677e-06
0.0031875,-1.213908376e-06
0.003208333333,-1.22816914e-06
0.003229166667,-1.24272367e-06
0.00325,-1.254503331e-06
0.003270833333,-1.257405756e-06
0.003291666667,-1.248030344e-06
0.0033125,-1.225492383e-06
0.003333333333,-1.194956099e-06
0.003354166667,-1.163137313e-06
0.003375,-1.13296187e-06
0.003395833333,-1.103740942e-06
0.003416666667,-1.068272582e-06
0.0034375,-1.024135031e-06
0.003458333333,-9.727684755e-07
0.003479166667,-9.232927596e-07
0.0035,-8.843763908e-07
0.003520833333,-8.571552712e-07
0.003541666667,-8.348944789e-07
0.0035625,-8.049076996e-07
0.003583333333,-7.602819778e-07
0.003604166667,-7.029394169e-07
0.003625,-6.425057677e-07
0.003645833333,-5.880099252e-07
0.003666666667,-5.385396662e-07
0.0036875,-4.855801876e-07
0.003708333333,-4.169882288e-07
0.003729166667,-3.309885415e-07
0.00375,-2.353772146e-07
0.003770833333,-1.460701782e-07
0.003791666667,-7.325699158e-08
0.0038125,-1.581908116e-08
0.003833333333,3.650373159e-08
0.003854166667,9.573213333e-08
0.003875,1.630110233e-07
0.003895833333,2.310920166e-07
0.003916666667,2.88276766e-07
0.0039375,3.299626314e-07
0.003958333333,3.638504609e-07
0.003979166667,4.018757238e-07
0.004,4.561228195e-07
0.004020833333,5.246309911e-07
0.004041666667,5.993703667e-07
0.0040625,6.678692444e-07
0.004083333333,7.252777436e-07
0.004104166667,7.751373801e-07
0.004125,8.239252907e-07
0.004145833333,8.765371717e-07
0.004166666667,9.286492286e-07
0.0041875,9.72748353e-07
0.004208333333,1.000676207e-06
0.004229166667,1.010664505e-06
0.00425,1.007925789e-06
0.004270833333,9.990556009e-07
0.004291666667,9.92262926e-07
0.0043125,9.877691127e-07
0.004333333333,9.864128288e-07
0.004354166667,9.830357612e-07
0.004375,9.764499964e-07
0.004395833333,9.65937943e-07
0.004416666667,9.529584304e-07
0.0044375,9.423224583e-07
0.004458333333,9.337811662e-07
0.004479166667,9.272582133e-07
0.0045,9.142825661e-07
0.004520833333,8.863253811e-07
0.004541666667,8.382567103e-07
0.0045625,7.696789339e-07
0.004583333333,6.92229321e-07
0.004604166667,6.130678116e-07
0.004625,5.395831977e-07
0.004645833333,4.649336915e-07
0.004666666667,3.808724216e-07
0.0046875,2.822520173e-07
0.004708333333,1.74003759e-07
0.004729166667,7.247263767e-08
0.00475,-1.107596237e-08
0.004770833333,-7.369273902e-08
0.004791666667,-1.303474022e-07
0.0048125,-1.993252567e-07
0.004833333333,-2.909185355e-07
0.004854166667,-4.012163686e-07
0.004875,-5.114377473e-07
0.004895833333,-6.117572298e-07
0.004916666667,-7.005492648e-07
0.0049375,-7.972377034e-07
0.004958333333,-9.16804197e-07
0.004979166667,-1.06370544e-06
0.005,-1.222819151e-06
0.005020833333,-1.368212793e-06
0.005041666667,-1.486521114e-06
0.0050625,-1.578015485e-06
0.005083333333,-1.662991508e-06
0.005104166667,-1.75730429e-06
0.005125,-1.863292141e-06
0.005145833333,-1.968697461e-06
0.005166666667,-2.052973514e-06
0.0051875,-2.113518121e-06
0.005208333333,-2.158037205e-06
0.005229166667,-2.211321771e-06
0.00525,-2.286155222e-06
0.005270833333,-2.383074843e-06
0.005291666667,-2.486341828e-06
0.0053125,-2.577483428e-06
0.005333333333,-2.65112908e-06
0.005354166667,-2.710449053e-06
0.005375,-2.769593038e-06
0.005395833333,-2.831603979e-06
0.005416666667,-2.892574912e-06
0.0054375,-2.939328851e-06
0.005458333333,-2.959100584e-06
0.005479166667,-2.953310286e-06
0.0055,-2.924552746e-06
0.005520833333,-2.890137239e-06
0.005541666667,-2.853827027e-06
0.0055625,-2.822764145e-06
0.005583333333,-2.793060048e-06
0.005604166667,-2.760036068e-06
0.005625,-2.723580565e-06
0.005645833333,-2.679055342e-06
0.005666666667,-2.633868917e-06
0.0056875,-2.58796058e-06
0.005708333333,-2.545984444e-06
0.005729166667,-2.505139946e-06
0.00575,-2.453980642e-06
0.005770833333,-2.384574827e-06
0.005791666667,-2.282715741e-06
0.0058125,-2.155984703e-06
0.005833333333,-2.010685876e-06
0.005854166667,-1.865709919e-06
0.005875,-1.726034725e-06
0.005895833333,-1.586354188e-06
0.005916666667,-1.436141929e-06
0.0059375,-1.264263688e-06
0.005958333333,-1.082904305e-06
0.005979166667,-9.073485785e-07
0.006,-7.600313552e-07
0.006020833333,-6.414170457e-07
0.006041666667,-5.326494943e-07
0.0060625,-4.111106477e-07
0.006083333333,-2.553998968e-07
0.006104166667,-7.955425474e-08
0.006125,1.01966755e-07
0.006145833333,2.646761743e-07
0.006166666667,4.142648322e-07
0.0061875,5.717384965e-07
0.006208333333,7.583082038e-07
0.006229166667,9.832789374e-07
0.00625,1.219900355e-06
0.006270833333,1.440290475e-06
0.006291666667,1.618526426e-06
0.0063125,1.760189434e-06
0.006333333333,1.89036416e-06
0.006354166667,2.029077677e-06
0.006375,2.184645609e-06
0.006395833333,2.331913947e-06
0.006416666667,2.453815114e-06
0.0064375,2.53587973e-06
0.006458333333,2.599661684e-06
0.006479166667,2.670890353e-06
0.0065,2.771206255e-06
0.006520833333,2.900677828e-06
0.006541666667,3.033243729e-06
0.0065625,3.151551482e-06
0.006583333333,3.239165608e-06
0.006604166667,3.30996977e-06
0.006625,3.376538416e-06
0.006645833333,3.444494723e-06
0.006666666667,3.51100357e-06
0.0066875,3.549188705e-06
0.006708333333,3.554414207e-06
0.006729166667,3.51497124e-06
0.00675,3.4490904e-06
0.006770833333,3.369282922e-06
0.006791666667,3.287479103e-06
0.0068125,3.210913746e-06
0.006833333333,3.130823416e-06
0.006854166667,3.048351346e-06
0.006875,2.953729563e-06
0.006895833333,2.851841145e-06
0.006916666667,2.744108542e-06
0.0069375,2.635446663e-06
0.006958333333,2.532052804e-06
0.006979166667,2.423242449e-06
0.007,2.304878535e-06
0.007020833333,2.150326736e-06
0.007041666667,1.957847189e-06
0.0070625,1.72266391e-06
0.007083333333,1.465523951e-06
0.007104166667,1.206954494e-06
0.007125,9.518988691e-07
0.007145833333,7.003461064e-07
0.007166666667,4.254483201e-07
0.0071875,1.260251565e-07
0.007208333333,-1.926062509e-07
0.007229166667,-5.009378015e-07
0.00725,-7.694593478e-07
0.007270833333,-1.003704597e-06
0.007291666667,-1.218031798e-06
0.0073125,-1.461082661e-06
0.007333333333,-1.742644486e-06
0.007354166667,-2.060920451e-06
0.007375,-2.380827254e-06
0.007395833333,-2.67624273e-06
0.007416666667,-2.95479299e-06
0.0074375,-3.239246325e-06
0.007458333333,-3.571275784e-06
0.007479166667,-3.94908011e-06
0.0075,-4.349178653e-06
0.007520833333,-4.722742233e-06
0.007541666667,-5.03724732e-06
0.0075625,-5.304023034e-06
0.007583333333,-5.546949069e-06
0.007604166667,-5.810405582e-06
0.007625,-6.086846497e-06
0.007645833333,-6.361312899e-06
0.007666666667,-6.593340913e-06
0.0076875,-6.773761925e-06
0.007708333333,-6.926415153e-06
0.007729166667,-7.083899163e-06
0.00775,-7.284669209e-06
0.007770833333,-7.516500773e-06
0.007791666667,-7.759491382e-06
0.0078125,-7.976225788e-06
0.007833333333,-8.152817827e-06
0.007854166667,-8.304732546e-06
0.007875,-8.442298167e-06
0.007895833333,-8.58806925e-06
0.007916666667,-8.718504432e-06
0.0079375,-8.822429663e-06
0.007958333333,-8.87117676e-06
0.007979166667,-8.865476957e-06
0.008,-8.819234608e-06
0.008020833333,-8.747840184e-06
0.008041666667,-8.676396646e-06
0.0080625,-8.600863111e-06
0.008083333333,-8.528747458e-06
0.008104166667,-8.446068932e-06
0.008125,-8.350419193e-06
0.008145833333,-8.242473086e-06
0.008166666667,-8.117865946e-06
0.0081875,-7.995856322e-06
0.008208333333,-7.866279702e-06
0.008229166667,-7.740954061e-06
0.00825,-7.591399935e-06
0.008270833333,-7.403204563e-06
0.008291666667,-7.157696928e-06
0.0083125,-6.851973012e-06
0.008333333333,-6.517237125e-06
0.008354166667,-6.168515029e-06
0.008375,-5.833733667e-06
0.008395833333,-5.494015113e-06
0.008416666667,-5.131270882e-06
0.0084375,-4.732284197e-06
0.008458333333,-4.301247372e-06
0.008479166667,-3.887384992e-06
0.0085,-3.509457201e-06
0.008520833333,-3.189511517e-06
0.008541666667,-2.882146873e-06
0.0085625,-2.549112196e-06
0.008583333333,-2.157884637e-06
0.008604166667,-1.716658289e-06
0.008625,-1.272751661e-06
0.008645833333,-8.489217862e-07
0.008666666667,-4.563081859e-07
0.0086875,-4.575173662e-08
0.008708333333,4.173405728e-07
0.008729166667,9.449406662e-07
0.00875,1.505152909e-06
0.008770833333,2.027919436e-06
0.008791666667,2.488642167e-06
0.0088125,2.874249731e-06
0.008833333333,3.244419077e-06
0.008854166667,3.627207207e-06
0.008875,4.03743843e-06
0.008895833333,4.442973932e-06
0.008916666667,4.794499546e-06
0.0089375,5.088660146e-06
0.008958333333,5.33692355e-06
0.008979166667,5.603927093e-06
0.009,5.916237569e-06
0.009020833333,6.27641748e-06
0.009041666667,6.651202511e-06
0.0090625,6.988073437e-06
0.009083333333,7.284575076e-06
0.009104166667,7.534220458e-06
0.009125,7.781807653e-06
0.009145833333,8.02536124e-06
0.009166666667,8.261938092e-06
0.0091875,8.458920092e-06
0.009208333333,8.585183423e-06
0.009229166667,8.645531125e-06
0.00925,8.643432921e-06
0.009270833333,8.620515473e-06
0.009291666667,8.587525372e-06
0.0093125,8.559464732e-06
0.009333333333,8.531490494e-06
0.009354166667,8.486425941e-06
0.009375,8.428461115e-06
0.009395833333,8.338921361e-06
0.009416666667,8.243463526e-06
0.0094375,8.13511997e-06
0.009458333333,8.034529856e-06
0.009479166667,7.927485967e-06
0.0095,7.790834388e-06
0.009520833333,7.601349353e-06
0.009541666667,7.325369552e-06
0.0095625,6.984197171e-06
0.009583333333,6.593066701e-06
0.009604166667,6.199091331e-06
0.009625,5.814491942e-06
0.009645833333,5.420120033e-06
0.009666666667,4.995653399e-06
0.0096875,4.505918241e-06
0.009708333333,3.990500318e-06
0.009729166667,3.478914778e-06
0.00975,3.032713721e-06
0.009770833333,2.64541336e-06
0.009791666667,2.275806082e-06
0.0098125,1.864952537e-06
0.009833333333,1.366725201e-06
0.009854166667,8.140625027e-07
0.009875,2.451159276e-07
0.009895833333,-2.817684219e-07
0.009916666667,-7.805418818e-07
0.0099375,-1.302497139e-06
0.009958333333,-1.896608751e-06
0.009979166667,-2.589727046e-06
0.01,-3.972594641e-06
0.01002083333,-6.300664154e-06
0.01004166667,-7.173500762e-06
0.0100625,-6.790620773e-06
0.01008333333,-5.975537533e-06
0.01010416667,-5.82110215e-06
0.010125,-6.088559985e-06
0.01014583333,-7.239601473e-06
0.01016666667,-7.866854503e-06
0.0101875,-8.145061656e-06
0.01020833333,-7.992854989e-06
0.01022916667,-8.303383765e-06
0.01025,-8.941703527e-06
0.01027083333,-1.011793211e-05
0.01029166667,-1.12875623e-05
0.0103125,-1.227072426e-05
0.01033333333,-1.279736898e-05
0.01035416667,-1.330575651e-05
0.010375,-1.3513064e-05
0.01039583333,-1.403356691e-05
0.01041666667,-1.387945667e-05
0.0104375,-1.34792781e-05
0.01045833333,-1.299128326e-05
0.01047916667,-1.314519614e-05
0.0105,-1.363075535e-05
0.01052083333,-1.463233002e-05
0.01054166667,-1.522266848e-05
0.0105625,-1.534413059e-05
0.01058333333,-1.508224705e-05
0.01060416667,-1.481452091e-05
0.010625,-1.468655137e-05
0.01064583333,-1.541627171e-05
0.01066666667,-1.572231849e-05
0.0106875,-1.591038017e-05
0.01070833333,-1.503376188e-05
0.01072916667,-1.452131164e-05
0.01075,-1.402370708e-05
0.01077083333,-1.426625295e-05
0.01079166667,-1.456524205e-05
0.0108125,-1.469823746e-05
0.01083333333,-1.43570478e-05
0.01085416667,-1.411026096e-05
0.010875,-1.376196451e-05
0.01089583333,-1.399526536e-05
0.01091666667,-1.348908427e-05
0.0109375,-1.324365985e-05
0.01095833333,-1.20289169e-05
0.01097916667,-1.158983468e-05
0.011,-1.069006248e-05
0.01102083333,-1.051553772e-05
0.01104166667,-1.060719751e-05
0.0110625,-1.021431854e-05
0.01108333333,-9.437684639e-06
0.01110416667,-8.81512733e-06
0.011125,-7.76667639e-06
0.01114583333,-7.558901871e-06
0.01116666667,-7.364230441e-06
0.0111875,-8.015005733e-06
0.01120833333,-7.700704373e-06
0.01122916667,-7.579769772e-06
0.01125,-6.533221949e-06
0.01127083333,-5.569602763e-06
0.01129166667,-4.125453415e-06
0.0113125,-3.336321697e-06
0.01133333333,-2.444479378e-06
0.01135416667,-2.490167617e-06
0.011375,-2.209500508e-06
0.01139583333,-2.450961347e-06
0.01141666667,-1.90758351e-06
0.0114375,-1.349753347e-06
0.01145833333,-2.124704679e-07
0.01147916667,-4.331186574e-07
0.0115,-2.540691639e-07
0.01152083333,-1.123681614e-06
0.01154166667,-1.287953182e-06
0.0115625,-1.075441105e-06
0.01158333333,-1.557659743e-07
0.01160416667,7.598682714e-07
0.011625,1.352433173e-06
0.01164583333,1.079444246e-06
0.01166666667,1.38535097e-06
0.0116875,1.286214683e-06
0.01170833333,2.181825039e-06
0.01172916667,1.964805506e-06
0.01175,1.820397756e-06
0.01177083333,7.4937725e-07
0.01179166667,2.166189006e-07
0.0118125,-3.649838618e-07
0.01183333333,4.237153917e-08
0.01185416667,4.394951247e-08
0.011875,1.031439751e-07
0.01189583333,5.013953341e-08
0.01191666667,-1.761964086e-08
0.0119375,-1.314410838e-07
0.01195833333,6.794989531e-07
0.01197916667,1.057160262e-07
0.012,4.568037184e-07
0.01202083333,-1.370864084e-06
0.01204166667,-2.186824531e-06
0.0120625,-3.440366527e-06
0.01208333333,-3.229182767e-06
0.01210416667,-3.835269126e-06
0.012125,-4.834751962e-06
0.01214583333,-5.63976937e-06
0.01216666667,-5.731254532e-06
0.0121875,-6.450502042e-06
0.01220833333,-5.695474101e-06
0.01222916667,-5.901322311e-06
0.01225,-5.288565262e-06
0.01227083333,-6.594778824e-06
0.01229166667,-7.77598143e-06
0.0123125,-9.546529327e-06
0.01233333333,-9.019806384e-06
0.01235416667,-9.807880815e-06
0.012375,-1.013240217e-05
0.01239583333,-1.123177663e-05
0.01241666667,-1.249151956e-05
0.0124375,-1.495434844e-05
0.01245833333,-1.547485954e-05
0.01247916667,-1.547937609e-05
0.0125,-1.449842603e-05
0.01252083333,-1.392847298e-05
0.01254166667,-1.345730288e-05
0.0125625,-1.540451558e-05
0.01258333333,-1.646689998e-05
0.01260416667,-1.852246351e-05
0.012625,-1.910415813e-05
0.01264583333,-1.920399154e-05
0.01266666667,-1.801825601e-05
0.0126875,-1.82998665e-05
0.01270833333,-1.848152169e-05
0.01272916667,-1.97058871e-05
0.01275,-2.063015017e-05
0.01277083333,-2.324452726e-05
0.01279166667,-2.332244367e-05
0.0128125,-2.442633195e-05
0.01283333333,-2.424453487e-05
0.01285416667,-2.414758637e-05
0.012875,-2.423206024e-05
0.01289583333,-2.510014383e-05
0.01291666667,-2.4427065e-05
0.0129375,-2.466250953e-05
0.01295833333,-2.446614963e-05
0.01297916667,-2.489340477e-05
0.013,-2.460559517e-05
0.01302083333,-2.630293056e-05
0.01304166667,-2.68108779e-05
0.0130625,-2.846747157e-05
0.01308333333,-2.798573769e-05
0.01310416667,-2.796985791e-05
0.013125,-2.79808155e-05
0.01314583333,-2.817424684e-05
0.01316666667,-2.719006079e-05
0.0131875,-2.723687794e-05
0.01320833333,-2.557526568e-05
0.01322916667,-2.488595055e-05
0.01325,-2.556111212e-05
0.01327083333,-2.545449388e-05
0.01329166667,-2.555469109e-05
0.0133125,-2.891774784e-05
0.01333333333,-2.815211701e-05
0.01335416667,-2.903878521e-05
0.013375,-2.839474655e-05
0.01339583333,-2.743702316e-05
0.01341666667,-2.554463208e-05
0.0134375,-2.398763172e-05
0.01345833333,-2.098164259e-05
0.01347916667,-2.104799569e-05
0.0135,-2.050354124e-05
0.01352083333,-2.177236456e-05
0.01354166667,-2.214696906e-05
0.0135625,-2.360297003e-05
0.01358333333,-2.300263986e-05
0.01360416667,-2.30808655e-05
0.013625,-2.187257087e-05
0.01364583333,-2.140423203e-05
0.01366666667,-2.042605774e-05
0.0136875,-2.099410267e-05
0.01370833333,-2.026058792e-05
0.01372916667,-2.106679676e-05
0.01375,-1.897030415e-05
0.01377083333,-1.648451507e-05
0.01379166667,-1.292568413e-05
0.0138125,-1.180255367e-05
0.01383333333,-1.262112983e-05
0.01385416667,-1.498554047e-05
0.013875,-1.534299736e-05
0.01389583333,-1.666833487e-05
0.01391666667,-1.571851681e-05
0.0139375,-1.308691844e-05
0.01395833333,-1.06043135e-05
0.01397916667,-8.966469977e-06
0.014,-7.430636742e-06
0.01402083333,-1.035934019e-05
0.01404166667,-1.061525745e-05
0.0140625,-1.133442038e-05
0.01408333333,-9.846949979e-06
0.01410416667,-9.301089449e-06
0.014125,-6.466923423e-06
0.01414583333,-5.591291483e-06
0.01416666667,-4.058213108e-06
0.0141875,-1.761440217e-06
0.01420833333,-1.07995902e-06
0.01422916667,-1.015960152e-06
0.01425,-1.109888217e-07
0.01427083333,-2.464865247e-06
0.01429166667,-2.511210823e-06
0.0143125,-1.709729077e-06
0.01433333333,-1.056238489e-06
0.01435416667,-3.548366294e-06
0.014375,-4.830044873e-06
0.01439583333,-6.748659416e-06
0.01441666667,-4.154901035e-06
0.0144375,-1.588879059e-06
0.01445833333,4.002113656e-06
0.01447916667,8.285407603e-06
0.0145,1.294772665e-05
0.01452083333,1.1181226e-05
0.01454166667,7.584556442e-06
0.0145625,1.149814352e-06
0.01458333333,-5.239494385e-06
0.01460416667,-1.014068039e-05
0.014625,-9.806892194e-06
0.01464583333,-9.364989637e-06
0.01466666667,-3.76420985e-06
0.0146875,1.138560037e-06
0.01470833333,6.687559562e-06
0.01472916667,9.695509107e-06
0.01475,1.184730172e-05
0.01477083333,1.013615838e-05
0.01479166667,8.349905329e-06
0.0148125,9.903757018e-06
0.01483333333,1.279778189e-05
0.01485416667,9.812706594e-06
0.014875,1.38281257e-06
0.01489583333,-1.003845955e-05
0.01491666667,-2.124314233e-05
0.0149375,-2.669215064e-05
0.01495833333,-1.732782039e-05
0.01497916667,5.036054063e-07
0.015,2.535620297e-05
0.01502083333,4.000018089e-05
0.01504166667,4.229505066e-05
0.0150625,2.986343497e-05
0.01508333333,1.071506995e-05
0.01510416667,-7.713573723e-06
0.015125,-1.265660921e-05
0.01514583333,-8.694053577e-06
0.01516666667,5.91366188e-07
0.0151875,5.007493201e-06
0.01520833333,5.035270988e-06
0.01522916667,8.101469575e-07
0.01525,2.460759788e-06
0.01527083333,5.143710951e-06
0.01529166667,1.314446581e-05
0.0153125,2.063241118e-05
0.01533333333,2.424325066e-05
0.01535416667,2.154431422e-05
0.015375,2.025872891e-05
0.01539583333,1.158209488e-05
0.01541666667,5.620127922e-06
0.0154375,-1.768012226e-06
0.01545833333,-6.003304406e-06
0.01547916667,-7.157390428e-06
0.0155,-1.837226591e-06
0.01552083333,1.026270911e-05
0.01554166667,2.085798769e-05
0.0155625,2.887479422e-05
0.01558333333,2.990757639e-05
0.01560416667,2.089262307e-05
0.015625,1.487792451e-05
0.01564583333,7.889517292e-06
0.01566666667,9.628754924e-06
0.0156875,1.377958415e-05
0.01570833333,1.617576345e-05
0.01572916667,1.446580336e-05
0.01575,1.252467246e-05
0.01577083333,1.190671719e-05
0.01579166667,1.820504258e-05
0.0158125,2.546259748e-05
0.01583333333,3.094200656e-05
0.01585416667,3.27494854e-05
0.015875,2.992313966e-05
0.01589583333,2.579249667e-05
0.01591666667,2.44913499e-05
0.0159375,2.172339191e-05
0.01595833333,2.516432687e-05
0.01597916667,2.300949018e-05
0.016,2.41499074e-05
0.01602083333,2.560484245e-05
0.01604166667,3.06039401e-05
0.0160625,3.239426587e-05
0.01608333333,3.626082616e-05
0.01610416667,3.744728383e-05
0.016125,3.573806316e-05
0.01614583333,3.254064723e-05
0.01616666667,2.987399239e-05
0.0161875,3.228148853e-05
0.01620833333,3.649496648e-05
0.01622916667,3.521143663e-05
0.01625,3.394377563e-05
0.01627083333,3.124009891e-05
0.01629166667,3.401976937e-05
0.0163125,3.793593351e-05
0.01633333333,4.519476352e-05
0.01635416667,4.671307397e-05
0.016375,4.66545971e-05
0.01639583333,4.431646084e-05
0.01641666667,3.922458563e-05
0.0164375,3.303872654e-05
0.01645833333,3.135768929e-05
0.01647916667,3.636282418e-05
0.0165,3.990915502e-05
0.01652083333,4.067061309e-05
0.01654166667,4.503576201e-05
0.0165625,4.723995517e-05
0.01658333333,5.44450304e-05
0.01660416667,5.138706547e-05
0.016625,5.185822374e-05
0.01664583333,4.389014066e-05
0.01666666667,3.888181527e-05
0.0166875,3.514927448e-05
0.01670833333,3.427699994e-05
0.01672916667,3.854282841e-05
0.01675,3.785258741e-05
0.01677083333,3.392565122e-05
0.01679166667,3.98066295e-05
0.0168125,4.420886034e-05
0.01683333333,4.902490764e-05
0.01685416667,5.241599865e-05
0.016875,4.931279182e-05
0.01689583333,3.664090036e-05
0.01691666667,2.770817264e-05
0.0169375,1.927833728e-05
0.01695833333,2.118902194e-05
0.01697916667,2.639514787e-05
0.017,3.474718687e-05
0.01702083333,3.516289144e-05
0.01704166667,3.2650918e-05
0.0170625,3.186760659e-05
0.01708333333,3.106618897e-05
0.01710416667,3.352315616e-05
0.017125,3.444359027e-05
0.01714583333,2.894857971e-05
0.01716666667,2.36691867e-05
0.0171875,1.276210514e-05
0.01720833333,6.735047464e-06
0.01722916667,2.192747615e-06
0.01725,2.970035212e-06
0.01727083333,2.066312391e-06
0.01729166667,4.573295882e-06
0.0173125,1.112228529e-05
0.01733333333,2.003913505e-05
0.01735416667,2.664891508e-05
0.017375,2.732671055e-05
0.01739583333,1.996472383e-05
0.01741666667,3.141828529e-06
0.0174375,-1.611383232e-05
0.01745833333,-2.45661322e-05
0.01747916667,-2.56835574e-05
0.0175,-2.002805741e-05
0.01752083333,-6.159662917e-06
0.01754166667,-3.510831448e-08
0.0175625,-6.892812053e-06
0.01758333333,-1.177344166e-05
0.01760416667,-1.492274532e-05
0.017625,-1.850115041e-05
0.01764583333,-1.264435741e-05
0.01766666667,-8.133117262e-06
0.0176875,-1.129450811e-05
0.01770833333,-1.925629658e-05
0.01772916667,-2.956349454e-05
0.01775,-3.955399006e-05
0.01777083333,-4.473509762e-05
0.01779166667,-3.49070142e-05
0.0178125,-2.945887536e-05
0.01783333333,-2.186626079e-05
0.01785416667,-2.520849739e-05
0.017875,-2.378246245e-05
0.01789583333,-3.297124204e-05
0.01791666667,-3.64249936e-05
0.0179375,-4.207329766e-05
0.01795833333,-4.534042091e-05
0.01797916667,-4.868645192e-05
0.018,-5.132788283e-05
0.01802083333,-4.895424354e-05
0.01804166667,-4.257263208e-05
0.0180625,-4.644922592e-05
0.01808333333,-4.524309043e-05
0.01810416667,-4.590005847e-05
0.018125,-4.056135367e-05
0.01814583333,-4.379096208e-05
0.01816666667,-4.858700049e-05
0.0181875,-5.147878983e-05
0.01820833333,-5.435810817e-05
0.01822916667,-5.921003321e-05
0.01825,-6.271887105e-05
0.01827083333,-6.03697008e-05
0.01829166667,-6.378092075e-05
0.0183125,-6.127990491e-05
0.01833333333,-5.973392399e-05
0.01835416667,-6.072135147e-05
0.018375,-5.597488052e-05
0.01839583333,-5.733273065e-05
0.01841666667,-5.736754247e-05
0.0184375,-5.774904275e-05
0.01845833333,-5.455371138e-05
0.01847916667,-5.584105747e-05
0.0185,-6.476142153e-05
0.01852083333,-6.745212886e-05
0.01854166667,-6.821166608e-05
0.0185625,-6.478649448e-05
0.01858333333,-6.551741535e-05
0.01860416667,-6.212598237e-05
0.018625,-5.940767733e-05
0.01864583333,-6.452837988e-05
0.01866666667,-6.458137068e-05
0.0186875,-6.894719263e-05
0.01870833333,-6.31113362e-05
0.01872916667,-6.669049617e-05
0.01875,-6.372157077e-05
0.01877083333,-6.383464643e-05
0.01879166667,-6.670723087e-05
0.0188125,-6.876982661e-05
0.01883333333,-7.15232818e-05
0.01885416667,-6.907922943e-05
0.018875,-6.597877655e-05
0.01889583333,-6.338637468e-05
0.01891666667,-6.387200847e-05
0.0189375,-7.042199286e-05
0.01895833333,-7.077158079e-05
0.01897916667,-7.335742703e-05
0.019,-6.897205458e-05
0.01902083333,-6.85163177e-05
0.01904166667,-6.130264956e-05
0.0190625,-6.112303527e-05
0.01908333333,-6.41347433e-05
0.01910416667,-6.857475819e-05
0.019125,-7.04188642e-05
0.01914583333,-7.057165931e-05
0.01916666667,-7.284144522e-05
0.0191875,-6.958301674e-05
0.01920833333,-6.883057358e-05
0.01922916667,-7.838603051e-05
0.01925,-6.950272655e-05
0.01927083333,-6.280027446e-05
0.01929166667,-5.218552906e-05
0.0193125,-4.845603326e-05
0.01933333333,-5.838722427e-05
0.01935416667,-7.504902896e-05
0.019375,-8.488593448e-05
0.01939583333,-8.802166121e-05
0.01941666667,-7.918873598e-05
0.0194375,-6.38285419e-05
0.01945833333,-5.153076927e-05
0.01947916667,-5.429649173e-05
0.0195,-6.861840666e-05
0.01952083333,-8.525674639e-05
0.01954166667,-8.790881111e-05
0.0195625,-8.35180399e-05
0.01958333333,-7.357115828e-05
0.01960416667,-7.137078501e-05
0.019625,-7.567714783e-05
0.01964583333,-8.95432895e-05
0.01966666667,-0.0001018970579
0.0196875,-9.930858505e-05
0.01970833333,-9.384288569e-05
0.01972916667,-8.624691691e-05
0.01975,-7.639473188e-05
0.01977083333,-7.819002349e-05
0.01979166667,-7.017292955e-05
0.0198125,-7.528016431e-05
0.01983333333,-8.122211148e-05
0.01985416667,-8.842829993e-05
0.019875,-0.0001048942213
0.01989583333,-0.000115927367
0.01991666667,-0.0001272434747
0.0199375,-0.0001373412961
0.01995833333,-0.0001361113536
0.01997916667,-0.0001134793492
0.02,-9.283950203e-05
0.02002083333,-7.911402645e-05
0.02004166667,-7.215588266e-05
0.0200625,-7.702849689e-05
0.02008333333,-8.607298514e-05
0.02010416667,-8.977333346e-05
0.020125,-9.078026778e-05
0.02014583333,-9.368954488e-05
0.02016666667,-9.171578859e-05
0.0201875,-9.952839173e-05
0.02020833333,-0.0001135660568
0.02022916667,-0.0001241436985
0.02025,-0.000130141445
0.02027083333,-0.0001199066319
0.02029166667,-9.492928075e-05
0.0203125,-7.739986177e-05
0.02033333333,-6.694276817e-05
0.02035416667,-7.613196794e-05
0.020375,-8.766227984e-05
0.02039583333,-9.796152881e-05
0.02041666667,-8.888743469e-05
0.0204375,-8.239718591e-05
0.02045833333,-8.076801896e-05
0.02047916667,-7.974800974e-05
0.0205,-8.699842147e-05
0.02052083333,-9.035084804e-05
0.02054166667,-9.235552716e-05
0.0205625,-8.562711446e-05
0.02058333333,-7.737720443e-05
0.02060416667,-6.661788939e-05
0.020625,-6.62849634e-05
0.02064583333,-6.492952525e-05
0.02066666667,-5.813094322e-05
0.0206875,-5.978511763e-05
0.02070833333,-5.667363439e-05
0.02072916667,-6.304364797e-05
0.02075,-6.978493184e-05
0.02077083333,-6.54343894e-05
0.02079166667,-5.700995098e-05
0.0208125,-3.943113552e-05
0.02083333333,-3.163857764e-05
0.02085416667,-3.12739503e-05
0.020875,-2.851243698e-05
0.02089583333,-3.01318978e-05
0.02091666667,-1.858555515e-05
0.0209375,-1.075895489e-05
0.02095833333,-1.193105891e-05
0.02097916667,-8.702892956e-06
0.021,-6.864749594e-06
0.02102083333,-5.151005098e-06
0.02104166667,5.427925316e-06
0.0210625,6.200504686e-06
0.02108333333,1.827531378e-06
0.02110416667,-4.409643225e-06
0.021125,-1.294660979e-05
0.02114583333,-9.659819625e-06
0.02116666667,1.26027935e-05
0.0211875,5.776712351e-05
0.02120833333,8.580457506e-05
0.02122916667,8.901220281e-05
0.02125,7.133718464e-05
0.02127083333,4.294485552e-05
0.02129166667,3.226859189e-05
0.0213125,4.335372068e-05
0.02133333333,5.578684795e-05
0.02135416667,6.218553608e-05
0.021375,5.88805342e-05
0.02139583333,4.517722482e-05
0.02141666667,4.784932753e-05
0.0214375,6.74108087e-05
0.02145833333,9.366274753e-05
0.02147916667,0.0001202489439
0.0215,0.00012357581
0.02152083333,0.000115839699
0.02154166667,0.0001069854043
0.0215625,0.0001028006445
0.02158333333,0.0001072144369
0.02160416667,0.0001115728955
0.021625,0.000108078646
0.02164583333,9.842048166e-05
0.02166666667,0.0001093681349
0.0216875,0.0001232240902
0.02170833333,0.0001484042441
0.02172916667,0.0001659141853
0.02175,0.0001717843406
0.02177083333,0.0001760108717
0.02179166667,0.0001690736244
0.0218125,0.0001699509739
0.02183333333,0.0001825428626
0.02185416667,0.0001819238096
0.021875,0.0001754114201
0.02189583333,0.0001504169486
0.02191666667,0.0001393939892
0.0219375,0.0001629426552
0.02195833333,0.0001976968924
0.02197916667,0.0002418457007
0.022,0.0002750015119
0.02202083333,0.0002638768055
0.02204166667,0.000245535135
0.0220625,0.000234460269
0.02208333333,0.0002238836314
0.02210416667,0.0002350886934
0.022125,0.0002441881807
0.02214583333,0.0002300603956
0.02216666667,0.0002332427539
0.0221875,0.000240956273
0.02220833333,0.0002659051388
0.02222916667,0.0002852085454
0.02225,0.0002879090025
0.02227083333,0.0002881830442
0.02229166667,0.0002928086906
0.0223125,0.0003106025397
0.02233333333,0.0003296211362
0.02235416667,0.0003449668002
0.022375,0.000328658236
0.02239583333,0.0002771882573
0.02241666667,0.0002333771554
0.0224375,0.0002159610594
0.02245833333,0.0002493717475
0.02247916667,0.0003259434598
0.0225,0.0003974387364
0.02252083333,0.0004234286607
0.02254166667,0.0004104114778
0.0225625,0.0003621618962
0.02258333333,0.0003279351513
0.02260416667,0.0003215065226
0.022625,0.0003409632482
0.02264583333,0.0003556337033
0.02266666667,0.0003479527077
0.0226875,0.0003209688002
0.02270833333,0.0003119392204
0.02272916667,0.0003221587103
0.02275,0.0003478509316
0.02277083333,0.0003795111261
0.02279166667,0.0003965510696
0.0228125,0.0004043506051
0.02283333333,0.0003980904585
0.02285416667,0.0004013223515
0.022875,0.0004160056124
0.02289583333,0.0004045632959
0.02291666667,0.0003789620532
0.0229375,0.0003417426196
0.02295833333,0.000322097505
0.02297916667,0.000330869836
0.023,0.0003733202175
0.02302083333,0.0004190325562
0.02304166667,0.0004399178724
0.0230625,0.0004302069428
0.02308333333,0.0003990421537
0.02310416667,0.0003838662524
0.023125,0.0004063788801
0.02314583333,0.0004254717787
0.02316666667,0.0004403475905
0.0231875,0.0004451364512
0.02320833333,0.0003995040897
0.02322916667,0.0003741249675
0.02325,0.0003746009897
0.02327083333,0.0003869184875
0.02329166667,0.0004196343652
0.0233125,0.0004462496145
0.02333333333,0.0004521716619
0.02335416667,0.0004465593956
0.023375,0.0004461091012
0.02339583333,0.00043932884
0.02341666667,0.0004479132476
0.0234375,0.0004546076525
0.02345833333,0.0004256116808
0.02347916667,0.0004111188173
0.0235,0.0004069259739
0.02352083333,0.0004203720018
0.02354166667,0.0004561546957
0.0235625,0.000476487272
0.02358333333,0.0004864057992
0.02360416667,0.0004839198664
0.023625,0.0004693042138
0.02364583333,0.0004671401985
0.02366666667,0.0004817645531
0.0236875,0.0004884003429
0.02370833333,0.0005055881338
0.02372916667,0.0005006142892
0.02375,0.0004912243458
0.02377083333,0.0004732101806
0.02379166667,0.0004702124861
0.0238125,0.0004602832487
0.02383333333,0.0004863750073
0.02385416667,0.0004996244679
0.023875,0.0005075319204
0.02389583333,0.0005184113397
0.02391666667,0.0005284808576
0.0239375,0.0005304451915
0.02395833333,0.0005165740149
0.02397916667,0.0004909548443
0.024,0.0004669014015
0.02402083333,0.0004593998601
0.02404166667,0.0004649524344
0.0240625,0.0004866593517
0.02408333333,0.000508273195
0.02410416667,0.0005120259011
0.024125,0.0004965894623
0.02414583333,0.0004819617316
0.02416666667,0.0004739589931
0.0241875,0.0004665946472
0.02420833333,0.000471368432
0.02422916667,0.0004714933457
0.02425,0.0004666570458
0.02427083333,0.0004548458965
0.02429166667,0.0004451717541
0.0243125,0.0004450039705
0.02433333333,0.0004481925571
0.02435416667,0.0004485704703
0.024375,0.0004390972899
0.02439583333,0.0004211144987
0.02441666667,0.0004117051139
0.0244375,0.0004144037957
0.02445833333,0.000419650285
0.02447916667,0.0004291756195
0.0245,0.0004360516614
0.02452083333,0.000430164946
0.02454166667,0.0004048398987
0.0245625,0.0003902439494
0.02458333333,0.0003873326932
0.02460416667,0.0003808364563
0.024625,0.0003742839326
0.02464583333,0.0003689660225
0.02466666667,0.0003547671949
0.0246875,0.0003570786794
0.02470833333,0.0003522949119
0.02472916667,0.0003596674651
0.02475,0.0003656878253
0.02477083333,0.0003436217958
0.02479166667,0.0003298086813
0.0248125,0.0003317185328
0.02483333333,0.0003480099258
0.02485416667,0.0003737671941
0.024875,0.0003933379776
0.02489583333,0.0003708564909
0.02491666667,0.0003103221243
0.0249375,0.0002374218602
0.02495833333,0.0001743074972
0.02497916667,0.0001616137451
0.025,0.0002074870426
0.02502083333,0.0002742070064
0.02504166667,0.0003317472001
0.0250625,0.0003486545756
0.02508333333,0.0003132842539
0.02510416667,0.000265141658
0.025125,0.0002322611981
0.02514583333,0.0002088632318
0.02516666667,0.000203863121
0.0251875,0.00019996232
0.02520833333,0.0001736668783
0.02522916667,0.0001614091452
0.02525,0.0001568851876
0.02527083333,0.000170579835
0.02529166667,0.0001995323692
0.0253125,0.000235296
0.02533333333,0.0002425051789
0.02535416667,0.0002350256837
0.025375,0.0002120257705
0.02539583333,0.0001856989547
0.02541666667,0.0001730755612
0.0254375,0.0001715160615
0.02545833333,0.0001635182416
0.02547916667,0.00013847847
0.0255,0.0001267252519
0.02552083333,0.0001217755635
0.02554166667,0.0001220858248
0.0255625,0.0001440672058
0.02558333333,0.000135688766
0.02560416667,0.0001323747856
0.025625,0.0001413332939
0.02564583333,0.0001271977817
0.02566666667,0.0001230023918
0.0256875,0.0001024106023
0.02570833333,6.503735494e-05
0.02572916667,4.086800618e-05
0.02575,3.368398757e-05
0.02577083333,2.726496677e-05
0.02579166667,5.075519221e-05
0.0258125,7.525106048e-05
0.02583333333,7.027917309e-05
0.02585416667,4.867541065e-05
0.025875,3.146671224e-05
0.02589583333,1.085990061e-05
0.02591666667,1.890298154e-05
0.0259375,3.681722592e-05
0.02595833333,9.0536887e-06
0.02597916667,-2.801991104e-05
0.026,-5.620596494e-05
0.02602083333,-8.014355262e-05
0.02604166667,-5.608090578e-05
0.0260625,-1.785143468e-06
0.02608333333,1.730046642e-05
0.02610416667,5.178422725e-06
0.026125,-6.38997808e-05
0.02614583333,-0.0001326474885
0.02616666667,-0.0001482723019
0.0261875,-0.0001286757033
0.02620833333,-0.0001028241895
0.02622916667,-7.385567005e-05
0.02625,-9.630237764e-05
0.02627083333,-0.0001243270963
0.02629166667,-0.0001505507098
0.0263125,-0.0001370213431
0.02633333333,-0.0001321289164
0.02635416667,-0.0001299078431
0.026375,-0.0001402254566
0.02639583333,-0.0001622576383
0.02641666667,-0.000191561121
0.0264375,-0.0001938464702
0.02645833333,-0.0002075486409
0.02647916667,-0.0002173318935
0.0265,-0.0002516712702
0.02652083333,-0.000275673694
0.02654166667,-0.0002753675799
0.0265625,-0.0002370460134
0.02658333333,-0.0001988166186
0.02660416667,-0.0001845231163
0.026625,-0.0001979820081
0.02664583333,-0.0002324992092
0.02666666667,-0.0002612235257
0.0266875,-0.0002665609936
0.02670833333,-0.0002617074351
0.02672916667,-0.0002775550238
0.02675,-0.0003049417282
0.02677083333,-0.0003431696096
0.02679166667,-0.0003507655929
0.0268125,-0.00031497897
0.02683333333,-0.0002529452904
0.02685416667,-0.000212535233
0.026875,-0.0002175870177
0.02689583333,-0.0002762973018
0.02691666667,-0.0003235970798
0.0269375,-0.0003456161066
0.02695833333,-0.000348047528
0.02697916667,-0.0003298179654
0.027,-0.0003295490751
0.02702083333,-0.0003740731627
0.02704166667,-0.0004119759251
0.0270625,-0.0003968889359
0.02708333333,-0.0003742980771
0.02710416667,-0.0003273890761
0.027125,-0.0003105456708
0.02714583333,-0.0003297223011
0.02716666667,-0.0003436465631
0.0271875,-0.000365058484
0.02720833333,-0.0003482570464
0.02722916667,-0.0003304049314
0.02725,-0.0003694966726
0.02727083333,-0.0004278501438
0.02729166667,-0.0004793890985
0.0273125,-0.0004624499124
0.02733333333,-0.0004046706017
0.02735416667,-0.0003147802781
0.027375,-0.0002944384178
0.02739583333,-0.0003264314146
0.02741666667,-0.0004019668268
0.0274375,-0.0004414748109
0.02745833333,-0.0004142464313
0.02747916667,-0.0003240468213
0.0275,-0.0002558390843
0.02752083333,-0.0002393300674
0.02754166667,-0.0003013738024
0.0275625,-0.0003658570058
0.02758333333,-0.0004012269783
0.02760416667,-0.0003675587359
0.027625,-0.0003125493822
0.02764583333,-0.0002990302164
0.02766666667,-0.0003430856159
0.0276875,-0.0004158512747
0.02770833333,-0.0004751471861
0.02772916667,-0.0004798914597
0.02775,-0.0004598654923
0.02777083333,-0.0004455051967
0.02779166667,-0.0004307040363
0.0278125,-0.0004243113217
0.02783333333,-0.0004225902958
0.02785416667,-0.0004080352373
0.027875,-0.0004108288558
0.02789583333,-0.0004738349817
0.02791666667,-0.0005362054217
0.0279375,-0.000597000937
0.02795833333,-0.0006575660664
0.02797916667,-0.0006185737438
0.028,-0.0005683753407
0.02802083333,-0.0005776075413
0.02804166667,-0.0005848691799
0.0280625,-0.0006259586662
0.02808333333,-0.0006628395058
0.02810416667,-0.0006405506865
0.028125,-0.0006246479461
0.02814583333,-0.0006102328189
0.02816666667,-0.0006113086129
0.0281875,-0.0006644607056
0.02820833333,-0.0007231288473
0.02822916667,-0.0007411570405
0.02825,-0.0007277129334
0.02827083333,-0.0007282200386
0.02829166667,-0.0007293959497
0.0283125,-0.0007628737949
0.02833333333,-0.0007891999558
0.02835416667,-0.0007499975036
0.028375,-0.0007451651618
0.02839583333,-0.0007177694351
0.02841666667,-0.0007350015221
0.0284375,-0.0008174789255
0.02845833333,-0.0009388623876
0.02847916667,-0.001011292799
0.0285,-0.001028244966
0.02852083333,-0.0009960149182
0.02854166667,-0.0008995738463
0.0285625,-0.000816942309
0.02858333333,-0.0007607308216
0.02860416667,-0.0007550097653
0.028625,-0.0008039376698
0.02864583333,-0.0009290215094
0.02866666667,-0.001016760711
0.0286875,-0.001079000533
0.02870833333,-0.001036596601
0.02872916667,-0.0008886266733
0.02875,-0.0007659403491
0.02877083333,-0.0007812978001
0.02879166667,-0.0008403538959
0.0288125,-0.0009645423852
0.02883333333,-0.001041057403
0.02885416667,-0.0009754326893
0.028875,-0.0008200785378
0.02889583333,-0.0007468077238
0.02891666667,-0.0007126508863
0.0289375,-0.0008329709526
0.02895833333,-0.001077570254
0.02897916667,-0.001200877712
0.029,-0.001188163878
0.02902083333,-0.001143790199
0.02904166667,-0.0009787352756
0.0290625,-0.0008881330723
0.02908333333,-0.0008176160045
0.02910416667,-0.0008274483262
0.029125,-0.0008492238703
0.02914583333,-0.0009824247099
0.02916666667,-0.001098510344
0.0291875,-0.001232714858
0.02920833333,-0.001356624067
0.02922916667,-0.001358403941
0.02925,-0.001280561322
0.02927083333,-0.001189375296
0.02929166667,-0.00118877925
0.0293125,-0.001255739247
0.02933333333,-0.001401241287
0.02935416667,-0.001442850335
0.029375,-0.001290366636
0.02939583333,-0.00116412458
0.02941666667,-0.00102468254
0.0294375,-0.001074862666
0.02945833333,-0.00138580054
0.02947916667,-0.001789441099
0.0295,-0.002074682619
0.02952083333,-0.002203398151
0.02954166667,-0.001986958086
0.0295625,-0.00167096185
0.02958333333,-0.001449569361
0.02960416667,-0.001287796418
0.029625,-0.00134724204
0.02964583333,-0.001478641294
0.02966666667,-0.001727267401
0.0296875,-0.001887307269
0.02970833333,-0.002111084526
0.02972916667,-0.002245980548
0.02975,-0.00229938142
0.02977083333,-0.002413993469
0.02979166667,-0.002405872103
0.0298125,-0.002483810298
0.02983333333,-0.002771043452
0.02985416667,-0.00276247412
0.029875,-0.002859971253
0.02989583333,-0.00281252386
0.02991666667,-0.002294075442
0.0299375,-0.001849142835
0.02995833333,-0.001497048303
0.02997916667,-0.000902723521
0.03,-0.01154730562
0.03002083333,-0.01100765634
0.03004166667,-0.01075025368
0.0300625,-0.01039957162
0.03008333333,-0.009904650971
0.03010416667,-0.00992371887
0.030125,-0.01007112022
0.03014583333,-0.01010496635
0.03016666667,-0.01046940498
0.0301875,-0.01061540842
0.03020833333,-0.01067123283
0.03022916667,-0.01088603679
0.03025,-0.01101555675
0.03027083333,-0.01121683046
0.03029166667,-0.0115356287
0.0303125,-0.0117495209
0.03033333333,-0.01208552253
0.03035416667,-0.01232277416
0.030375,-0.01249340083
0.03039583333,-0.01244857628
0.03041666667,-0.01236274838
0.0304375,-0.01215500943
0.03045833333,-0.01202265639
0.03047916667,-0.01223316323
0.0305,-0.0126174707
0.03052083333,-0.01313473377
0.03054166667,-0.0135667827
0.0305625,-0.01374282315
0.03058333333,-0.01376693789
0.03060416667,-0.01377642527
0.030625,-0.01374962647
0.03064583333,-0.01394811552
0.03066666667,-0.01424610987
0.0306875,-0.01446185261
0.03070833333,-0.01460413262
0.03072916667,-0.01469312795
0.03075,-0.01475903764
0.03077083333,-0.0148936715
0.03079166667,-0.01517369878
0.0308125,-0.01546055358
0.03083333333,-0.01572859846
0.03085416667,-0.01603164524
0.030875,-0.01622884348
0.03089583333,-0.01645075157
0.03091666667,-0.01657173038
0.0309375,-0.01670558937
0.03095833333,-0.01674441993
0.03097916667,-0.01693156548
0.031,-0.01714348048
0.03102083333,-0.01751832105
0.03104166667,-0.01805563644
0.0310625,-0.0184377972
0.03108333333,-0.0187246222
0.03110416667,-0.01889422536
0.031125,-0.01900184527
0.03114583333,-0.01925885864
0.03116666667,-0.01964749023
0.0311875,-0.0200902801
0.03120833333,-0.02049074508
0.03122916667,-0.02086406201
0.03125,-0.02108030021
0.03127083333,-0.02130380087
0.03129166667,-0.02159287967
0.0313125,-0.02201765403
0.03133333333,-0.02247419022
0.03135416667,-0.02301462367
0.031375,-0.0234782733
0.03139583333,-0.02386241592
0.03141666667,-0.0241831895
0.0314375,-0.0245196484
0.03145833333,-0.0248305779
0.03147916667,-0.02513377741
0.0315,-0.02553153038
0.03152083333,-0.02593547665
0.03154166667,-0.02641520835
0.0315625,-0.02686887234
0.03158333333,-0.02725785971
0.03160416667,-0.02761710063
0.031625,-0.02796521783
0.03164583333,-0.02829220891
0.03166666667,-0.02866175212
0.0316875,-0.0290303342
0.03170833333,-0.02934646606
0.03172916667,-0.02965574339
0.03175,-0.02994743548
0.03177083333,-0.03031967208
0.03179166667,-0.03072703257
0.0318125,-0.03112266771
0.03183333333,-0.03142700344
0.03185416667,-0.03171211854
0.031875,-0.03197292611
0.03189583333,-0.03224609047
0.03191666667,-0.03257510439
0.0319375,-0.03293116763
0.03195833333,-0.03326426819
0.03197916667,-0.03360865638
0.032,-0.03390497714
0.03202083333,-0.03416406736
0.03204166667,-0.03453676775
0.0320625,-0.03489590436
0.03208333333,-0.0352968052
0.03210416667,-0.03570247814
0.032125,-0.0360334143
0.03214583333,-0.03636091948
0.03216666667,-0.03667808697
0.0321875,-0.03699624538
0.03220833333,-0.0372348316
0.03222916667,-0.0375091359
0.03225,-0.03774414957
0.03227083333,-0.03802883998
0.03229166667,-0.03840282559
0.0323125,-0.03878124431
0.03233333333,-0.03912773728
0.03235416667,-0.03942815959
0.032375,-0.03967246413
0.03239583333,-0.03990771621
0.03241666667,-0.04019547999
0.0324375,-0.04051931202
0.03245833333,-0.04080705345
0.03247916667,-0.04099426046
0.0325,-0.0411426723
0.03252083333,-0.04121051356
0.03254166667,-0.04136414081
0.0325625,-0.04159468412
0.03258333333,-0.04182244837
0.03260416667,-0.04202048853
0.032625,-0.04216951132
0.03264583333,-0.04226179793
0.03266666667,-0.04235312715
0.0326875,-0.04249560833
0.03270833333,-0.04273579642
0.03272916667,-0.04298089445
0.03275,-0.04318571463
0.03277083333,-0.04331634566
0.03279166667,-0.04344275966
0.0328125,-0.04365249723
0.03283333333,-0.04377549514
0.03285416667,-0.04396142811
0.032875,-0.04412458837
0.03289583333,-0.04422890395
0.03291666667,-0.04435431585
0.0329375,-0.04448177293
0.03295833333,-0.04466415197
0.03297916667,-0.04486686364
0.033,-0.04503773525
0.03302083333,-0.04516644776
0.03304166667,-0.04534647614
0.0330625,-0.04556719959
0.03308333333,-0.04578273743
0.03310416667,-0.04597489536
0.033125,-0.04612851888
0.03314583333,-0.04627870768
0.03316666667,-0.04632874578
0.0331875,-0.04644999653
0.03320833333,-0.0465808101
0.03322916667,-0.04668981209
0.03325,-0.04677581787
0.03327083333,-0.046952039
0.03329166667,-0.04707635939
0.0333125,-0.04721634462
0.03333333333,-0.0473812893
0.03335416667,-0.04757893085
0.033375,-0.04768237099
0.03339583333,-0.04777778685
0.03341666667,-0.04778239131
0.0334375,-0.0478056632
0.03345833333,-0.04790958762
0.03347916667,-0.04801216349
0.0335,-0.04812336713
0.03352083333,-0.04823496938
0.03354166667,-0.04831401631
0.0335625,-0.04839795455
0.03358333333,-0.04850461707
0.03360416667,-0.04858283326
0.033625,-0.04861989245
0.03364583333,-0.0486356765
0.03366666667,-0.04860197008
0.0336875,-0.04857729748
0.03370833333,-0.04856448993
0.03372916667,-0.04856988043
0.03375,-0.04851622507
0.03377083333,-0.04848064855
0.03379166667,-0.04843813926
0.0338125,-0.04840572551
0.03383333333,-0.04839889705
0.03385416667,-0.04843811318
0.033875,-0.04847833887
0.03389583333,-0.04840474203
0.03391666667,-0.04827442393
0.0339375,-0.04808484018
0.03395833333,-0.04797330126
0.03397916667,-0.04784071445
0.034,-0.04767104238
0.03402083333,-0.04753895104
0.03404166667,-0.04739929363
0.0340625,-0.04724334925
0.03408333333,-0.04702500254
0.03410416667,-0.04681314901
0.034125,-0.04662434012
0.03414583333,-0.04647988454
0.03416666667,-0.04626592249
0.0341875,-0.0460588932
0.03420833333,-0.04584787786
0.03422916667,-0.04569130018
0.03425,-0.04548905045
0.03427083333,-0.04531956464
0.03429166667,-0.04509793222
0.0343125,-0.0448368974
0.03433333333,-0.04467445984
0.03435416667,-0.04430282116
0.034375,-0.04404951259
0.03439583333,-0.04381376505
0.03441666667,-0.04364359751
0.0344375,-0.04329145327
0.03445833333,-0.04305768758
0.03447916667,-0.04285847023
0.0345,-0.04260487482
0.03452083333,-0.04248469323
0.03454166667,-0.0422033146
0.0345625,-0.04197828472
0.03458333333,-0.0417618528
0.03460416667,-0.04164391756
0.034625,-0.04146655649
0.03464583333,-0.04130091891
0.03466666667,-0.04107819125
0.0346875,-0.04082474113
0.03470833333,-0.04057558626
0.03472916667,-0.04034430534
0.03475,-0.04009666294
0.03477083333,-0.0398767069
0.03479166667,-0.03958690166
0.0348125,-0.03929528967
0.03483333333,-0.03900481761
0.03485416667,-0.03873090446
0.034875,-0.03851396218
0.03489583333,-0.03824401647
0.03491666667,-0.03800137341
0.0349375,-0.03770077229
0.03495833333,-0.0373900868
0.03497916667,-0.03706448898
0.035,-0.03674875572
0.03502083333,-0.03648770973
0.03504166667,-0.0362477079
0.0350625,-0.03602684289
0.03508333333,-0.03577358276
0.03510416667,-0.03550047427
0.035125,-0.03512106836
0.03514583333,-0.03474156931
0.03516666667,-0.03431974724
0.0351875,-0.03391874582
0.03520833333,-0.03351055086
0.03522916667,-0.0331678912
0.03525,-0.03274666518
0.03527083333,-0.03239437938
0.03529166667,-0.03197352588
0.0353125,-0.03157201409
0.03533333333,-0.03115502745
0.03535416667,-0.03074236587
0.035375,-0.03036250919
0.03539583333,-0.02996267937
0.03541666667,-0.0296106562
0.0354375,-0.02925720066
0.03545833333,-0.02889639884
0.03547916667,-0.0285042841
0.0355,-0.02807554975
0.03552083333,-0.02769335732
0.03554166667,-0.02724258229
0.0355625,-0.02684694901
0.03558333333,-0.02644415572
0.03560416667,-0.02606568299
0.035625,-0.02564431541
0.03564583333,-0.025228329
0.03566666667,-0.02475086227
0.0356875,-0.02431429923
0.03570833333,-0.02390791476
0.03572916667,-0.02339874394
0.03575,-0.02287689224
0.03577083333,-0.02235610597
0.03579166667,-0.02183918841
0.0358125,-0.0211893525
0.03583333333,-0.02029964142
0.03585416667,-0.01952102222
0.035875,-0.01864648424
0.03589583333,-0.017979661
0.03591666667,-0.01728558913
0.0359375,-0.01666969433
0.03595833333,-0.01615118608
0.03597916667,-0.01564852521
0.036,-0.01520347409
0.03602083333,-0.01474869158
0.03604166667,-0.01436353475
0.0360625,-0.01403106749
0.03608333333,-0.01366273873
0.03610416667,-0.01331672445
0.036125,-0.01293102745
0.03614583333,-0.01258922089
0.03616666667,-0.01215657592
0.0361875,-0.01181250811
0.03620833333,-0.01141760126
0.03622916667,-0.01116535347
0.03625,-0.01086125709
0.03627083333,-0.01050759107
0.03629166667,-0.01016238052
0.0363125,-0.009743247181
0.03633333333,-0.009404254146
0.03635416667,-0.009056701325
0.036375,-0.008643226698
0.03639583333,-0.008218887262
0.03641666667,-0.007741268259
0.0364375,-0.007305635139
0.03645833333,-0.006923231296
0.03647916667,-0.006507653277
0.0365,-0.006086713634
0.03652083333,-0.005653487984
0.03654166667,-0.00515864417
0.0365625,-0.004727321677
0.03658333333,-0.00427472638
0.03660416667,-0.003893448738
0.036625,-0.003455327358
0.03664583333,-0.003033880843
0.03666666667,-0.002656257711
0.0366875,-0.002226839773
0.03670833333,-0.001814749092
0.03672916667,-0.001335822395
0.03675,-0.0008607726777
0.03677083333,-0.0005011947942
0.03679166667,-0.0001338486909
0.0368125,0.0002767716651
0.03683333333,0.0006622124347
0.03685416667,0.001101976726
0.036875,0.001517914003
0.03689583333,0.001924651442
0.03691666667,0.00236502802
0.0369375,0.002782000694
0.03695833333,0.003249566071
0.03697916667,0.003739666427
0.037,0.004282325506
0.03702083333,0.004729793407
0.03704166667,0.005210435018
0.0370625,0.005702717695
0.03708333333,0.006201014388
0.03710416667,0.00666490756
0.037125,0.0072184694
0.03714583333,0.007752730511
0.03716666667,0.008239559829
0.0371875,0.008797021583
0.03720833333,0.009342949837
0.03722916667,0.009954231791
0.03725,0.01057592314
0.03727083333,0.01116879564
0.03729166667,0.01179971453
0.0373125,0.01235241536
0.03733333333,0.01293767989
0.03735416667,0.01357986126
0.037375,0.01421587449
0.03739583333,0.0148345083
0.03741666667,0.01539273839
0.0374375,0.01590579376
0.03745833333,0.01646500267
0.03747916667,0.01710898429
0.0375,0.01771502011
0.03752083333,0.01830716617
0.03754166667,0.01890963875
0.0375625,0.0193754863
0.03758333333,0.01980042085
0.03760416667,0.02023958787
0.037625,0.02070746385
0.03764583333,0.02115768194
0.03766666667,0.02170496993
0.0376875,0.02213160135
0.03770833333,0.02261980064
0.03772916667,0.02304602601
0.03775,0.02349550463
0.03777083333,0.02398782037
0.03779166667,0.02445983514
0.0378125,0.0248856768
0.03783333333,0.02536325343
0.03785416667,0.02578878589
0.037875,0.02623517998
0.03789583333,0.02671281248
0.03791666667,0.02718068473
0.0379375,0.02770265378
0.03795833333,0.02816670202
0.03797916667,0.0286165718
0.038,0.0291261971
0.03802083333,0.0296314247
0.03804166667,0.03009848297
0.0380625,0.03050737269
0.03808333333,0.03087166883
0.03810416667,0.03116967902
0.038125,0.03152744845
0.03814583333,0.03182404488
0.03816666667,0.03214423358
0.0381875,0.0324447453
0.03820833333,0.03272910416
0.03822916667,0.03300346807
0.03825,0.03332567587
0.03827083333,0.03365032002
0.03829166667,0.03399539366
0.0383125,0.03431117535
0.03833333333,0.03460204229
0.03835416667,0.03492156416
0.038375,0.0352275148
0.03839583333,0.03551863879
0.03841666667,0.03586340323
0.0384375,0.03617119417
0.03845833333,0.03654366732
0.03847916667,0.03688732535
0.0385,0.03729026392
0.03852083333,0.03763671964
0.03854166667,0.03797706217
0.0385625,0.03835551441
0.03858333333,0.03870901838
0.03860416667,0.03895223513
0.038625,0.0393031463
0.03864583333,0.03964810446
0.03866666667,0.04003471509
0.0386875,0.04038559273
0.03870833333,0.04072543979
0.03872916667,0.04100333899
0.03875,0.0412841253
0.03877083333,0.04163402319
0.03879166667,0.04196842015
0.0388125,0.04236420989
0.03883333333,0.04274341092
0.03885416667,0.04312752932
0.038875,0.04346901178
0.03889583333,0.04382070526
0.03891666667,0.04429360107
0.0389375,0.0447121039
0.03895833333,0.04516906291
0.03897916667,0.04563159123
0.039,0.04616738483
0.03902083333,0.04659450427
0.03904166667,0.04709322751
0.0390625,0.04755798727
0.03908333333,0.04801157117
0.03910416667,0.04855519533
0.039125,0.04909044504
0.03914583333,0.04959206656
0.03916666667,0.05016369373
0.0391875,0.05077378452
0.03920833333,0.05136523023
0.03922916667,0.05196767673
0.03925,0.05254202336
0.03927083333,0.05307295546
0.03929166667,0.05359838903
0.0393125,0.05416112393
0.03933333333,0.05473091826
0.03935416667,0.0552056171
0.039375,0.05570723861
0.03939583333,0.05608407035
0.03941666667,0.05651006848
0.0394375,0.05691467226
0.03945833333,0.05724490061
0.03947916667,0.05760583282
0.0395,0.05796133727
0.03952083333,0.05835686624
0.03954166667,0.05869774893
0.0395625,0.05900323763
0.03958333333,0.05928424746
0.03960416667,0.05957654864
0.039625,0.05989057198
0.03964583333,0.06014572829
0.03966666667,0.06045832485
0.0396875,0.06070763618
0.03970833333,0.06102716923
0.03972916667,0.06127335131
0.03975,0.06154442951
0.03977083333,0.06187460572
0.03979166667,0.06223720685
0.0398125,0.06259065121
0.03983333333,0.06299520284
0.03985416667,0.06337564439
0.039875,0.06374007463
0.03989583333,0.06409168243
0.03991666667,0.06454156339
0.0399375,0.06495885551
0.03995833333,0.06541588157
0.03997916667,0.06582105905
0.04,0.0663131699
0.04002083333,0.06679878384
0.04004166667,0.06724022329
0.0400625,0.06779314578
0.04008333333,0.06821355224
0.04010416667,0.06866764277
0.040125,0.06902752072
0.04014583333,0.06941700727
0.04016666667,0.06992732733
0.0401875,0.07025983185
0.04020833333,0.07067656517
0.04022916667,0.07104432583
0.04025,0.07134374231
0.04027083333,0.071657978
0.04029166667,0.07202653587
0.0403125,0.07234407216
0.04033333333,0.0727211833
0.04035416667,0.07298314571
0.040375,0.07324006408
0.04039583333,0.07350304723
0.04041666667,0.07369913161
0.0404375,0.07399071008
0.04045833333,0.07424259186
0.04047916667,0.07458367944
0.0405,0.07490292192
0.04052083333,0.07508520037
0.04054166667,0.07530267537
0.0405625,0.07547905296
0.04058333333,0.07555475086
0.04060416667,0.07565944642
0.040625,0.07573454827
0.04064583333,0.07587955892
0.04066666667,0.07603929192
0.0406875,0.07620283216
0.04070833333,0.07655893266
0.04072916667,0.07688853145
0.04075,0.07727194577
0.04077083333,0.07762338966
0.04079166667,0.07803313434
0.0408125,0.07840779424
0.04083333333,0.07882189006
0.04085416667,0.07926570624
0.040875,0.07976700366
0.04089583333,0.08024783432
0.04091666667,0.08080714941
0.0409375,0.08131222427
0.04095833333,0.08186519891
0.04097916667,0.08252817392
0.041,0.08320201188
0.04102083333,0.0840440169
0.04104166667,0.08485630155
0.0410625,0.0857347399
0.04108333333,0.08672761917
0.04110416667,0.08757001907
0.041125,0.08849266917
0.04114583333,0.08933838457
0.04116666667,0.09015598893
0.0411875,0.09089888632
0.04120833333,0.0917256996
0.04122916667,0.0926329717
0.04125,0.09356899559
0.04127083333,0.09451040626
0.04129166667,0.09546662122
0.0413125,0.09641751647
0.04133333333,0.09743082523
0.04135416667,0.09851511568
0.041375,0.09948660433
0.04139583333,0.1004643738
0.04141666667,0.1015128866
0.0414375,0.1025039479
0.04145833333,0.1035005227
0.04147916667,0.1044751704
0.0415,0.1053820997
0.04152083333,0.1062962189
0.04154166667,0.1072126403
0.0415625,0.1081750914
0.04158333333,0.109081082
0.04160416667,0.1099557877
0.041625,0.1108867303
0.04164583333,0.1117325798
0.04166666667,0.1124814227
0.0416875,0.1131976098
0.04170833333,0.1139097512
0.04172916667,0.1146336943
0.04175,0.1153109521
0.04177083333,0.1158758998
0.04179166667,0.1164360866
0.0418125,0.1169992834
0.04183333333,0.1176114976
0.04185416667,0.1181880161
0.041875,0.1187426969
0.04189583333,0.1192427725
0.04191666667,0.1197857112
0.0419375,0.1202950999
0.04195833333,0.1207859889
0.04197916667,0.121357739
0.042,0.1218631566
0.04202083333,0.1223588735
0.04204166667,0.1228369176
0.0420625,0.1232962981
0.04208333333,0.1239103004
0.04210416667,0.1243794262
0.042125,0.1248675957
0.04214583333,0.1253795475
0.04216666667,0.1259643286
0.0421875,0.1265179217
0.04220833333,0.1270390302
0.04222916667,0.1275254339
0.04225,0.1279957294
0.04227083333,0.1284636855
0.04229166667,0.128907606
0.0423125,0.1293385625
0.04233333333,0.1297667623
0.04235416667,0.1302304864
0.042375,0.1306309849
0.04239583333,0.1310893148
0.04241666667,0.1314769238
0.0424375,0.1319083124
0.04245833333,0.1323428899
0.04247916667,0.1326401383
0.0425,0.1329643875
0.04252083333,0.133134976
0.04254166667,0.1333112568
0.0425625,0.1334318668
0.04258333333,0.1335751265
0.04260416667,0.1336501837
0.042625,0.1337902844
0.04264583333,0.1337341368
0.04266666667,0.133732155
0.0426875,0.1336655915
0.04270833333,0.1335360557
0.04272916667,0.1334472001
0.04275,0.1334021091
0.04277083333,0.1333259642
0.04279166667,0.1331896186
0.0428125,0.1329921931
0.04283333333,0.1328079253
0.04285416667,0.1325134933
0.042875,0.1322042197
0.04289583333,0.1319436878
0.04291666667,0.1315742582
0.0429375,0.1312719733
0.04295833333,0.131036967
0.04297916667,0.130830586
0.043,0.1305924654
0.04302083333,0.130308181
0.04304166667,0.1301071197
0.0430625,0.1299333423
0.04308333333,0.1297886819
0.04310416667,0.1296214312
0.043125,0.12942788
0.04314583333,0.1293222755
0.04316666667,0.1292486936
0.0431875,0.1291622221
0.04320833333,0.1290770471
0.04322916667,0.1290101856
0.04325,0.1289641112
0.04327083333,0.1288392544
0.04329166667,0.1286950856
0.0433125,0.1285737902
0.04333333333,0.1283780485
0.04335416667,0.128206715
0.043375,0.1280385554
0.04339583333,0.1278512776
0.04341666667,0.1277146786
0.0434375,0.1275489628
0.04345833333,0.127226904
0.04347916667,0.1269103736
0.0435,0.1266451925
0.04352083333,0.1263343692
0.04354166667,0.1259847283
0.0435625,0.1256427169
0.04358333333,0.1253672987
0.04360416667,0.1249606758
0.043625,0.1244119406
0.04364583333,0.1239365414
0.04366666667,0.1234327704
0.0436875,0.122915484
0.04370833333,0.1223486811
0.04372916667,0.1217453703
0.04375,0.1211324632
0.04377083333,0.1204630136
0.04379166667,0.1198002696
0.0438125,0.1191710904
0.04383333333,0.1186019182
0.04385416667,0.1179592982
0.043875,0.1173571274
0.04389583333,0.1166478992
0.04391666667,0.1164875999
0.0439375,0.1167009994
0.04395833333,0.1165502369
0.04397916667,0.1164724082
0.044,0.1163304076
0.04402083333,0.1160343215
0.04404166667,0.1158488393
0.0440625,0.1157277152
0.04408333333,0.1159657985
0.04410416667,0.1158540025
0.044125,0.1154596508
0.04414583333,0.1148971245
0.04416666667,0.1140705645
0.0441875,0.1130171791
0.04420833333,0.1118460596
0.04422916667,0.1106408015
0.04425,0.1093450561
0.04427083333,0.1080930457
0.04429166667,0.1068472266
0.0443125,0.1055834517
0.04433333333,0.1043380275
0.04435416667,0.102998592
0.044375,0.1017090008
0.04439583333,0.1003416851
0.04441666667,0.09896410257
0.0444375,0.09764200449
0.04445833333,0.09642545134
0.04447916667,0.09520354122
0.0445,0.09407676756
0.04452083333,0.09292413294
0.04454166667,0.09169378877
0.0445625,0.09055195004
0.04458333333,0.08946242929
0.04460416667,0.08846445382
0.044625,0.08748175949
0.04464583333,0.08654422313
0.04466666667,0.08555690944
0.0446875,0.08459698409
0.04470833333,0.08366046101
0.04472916667,0.08272378892
0.04475,0.08186908811
0.04477083333,0.08095179498
0.04479166667,0.08010289818
0.0448125,0.07917594165
0.04483333333,0.0783681646
0.04485416667,0.07750725001
0.044875,0.07674107701
0.04489583333,0.07583204657
0.04491666667,0.07501678169
0.0449375,0.07424663752
0.04495833333,0.07342253625
0.04497916667,0.07272268832
0.045,0.07199994475
0.04502083333,0.07124374062
0.04504166667,0.07041868567
0.0450625,0.0695881173
0.04508333333,0.06882565469
0.04510416667,0.06811461598
0.045125,0.06731952727
0.04514583333,0.06653638184
0.04516666667,0.06575919688
0.0451875,0.06490455568
0.04520833333,0.06416805089
0.04522916667,0.06333938241
0.04525,0.06261190772
0.04527083333,0.06172313169
0.04529166667,0.06096126884
0.0453125,0.06016768515
0.04533333333,0.05932639912
0.04535416667,0.05859106407
0.045375,0.05786075071
0.04539583333,0.0572376661
0.04541666667,0.05657872558
0.0454375,0.05606836826
0.04545833333,0.05544281378
0.04547916667,0.05481916294
0.0455,0.05432311445
0.04552083333,0.05370070785
0.04554166667,0.05311123654
0.0455625,0.05250864103
0.04558333333,0.05178315938
0.04560416667,0.05109638721
0.045625,0.05028920248
0.04564583333,0.04952808842
0.04566666667,0.04870720208
0.0456875,0.04791095108
0.04570833333,0.04706870392
0.04572916667,0.04621332884
0.04575,0.04544157907
0.04577083333,0.04456735402
0.04579166667,0.04374044761
0.0458125,0.04287584871
0.04583333333,0.0420993194
0.04585416667,0.0413130708
0.045875,0.0406033136
0.04589583333,0.03983933851
0.04591666667,0.03918704763
0.0459375,0.03848442808
0.04595833333,0.03775006905
0.04597916667,0.03700996935
0.046,0.03630808368
0.04602083333,0.03558198363
0.04604166667,0.03486382216
0.0460625,0.03411258012
0.04608333333,0.03335012123
0.04610416667,0.03260030597
0.046125,0.03186381236
0.04614583333,0.03095533699
0.04616666667,0.03015037626
0.0461875,0.02937691472
0.04620833333,0.02856978774
0.04622916667,0.02790206857
0.04625,0.02715685777
0.04627083333,0.02637323178
0.04629166667,0.02558061294
0.0463125,0.02469650842
0.04633333333,0.02390279062
0.04635416667,0.02299228497
0.046375,0.02215955406
0.04639583333,0.02132939547
0.04641666667,0.02059482783
0.0464375,0.01988470368
0.04645833333,0.01916811615
0.04647916667,0.01857660711
0.0465,0.01796565577
0.04652083333,0.01737743057
0.04654166667,0.01675307006
0.0465625,0.0160359852
0.04658333333,0.01541291829
0.04660416667,0.01466998644
0.046625,0.01392165199
0.04664583333,0.01314735599
0.04666666667,0.01240225136
0.0466875,0.01167322323
0.04670833333,0.01096400991
0.04672916667,0.01027705427
0.04675,0.009601347148
0.04677083333,0.008821864612
0.04679166667,0.008130940609
0.0468125,0.007426545955
0.04683333333,0.006667223759
0.04685416667,0.005931696389
0.046875,0.005225753412
0.04689583333,0.004527768586
0.04691666667,0.003870817134
0.0469375,0.003269721288
0.04695833333,0.002685631393
0.04697916667,0.00213149609
0.047,0.001616253052
0.04702083333,0.001001426252
0.04704166667,0.0004594702623
0.0470625,-0.0001326875936
0.04708333333,-0.0007161792601
0.04710416667,-0.001300097443
0.047125,-0.001904073404
0.04714583333,-0.002614169847
0.04716666667,-0.003362014191
0.0471875,-0.004047977738
0.04720833333,-0.004664747044
0.04722916667,-0.005335302092
0.04725,-0.00593276741
0.04727083333,-0.006549471989
0.04729166667,-0.007079914678
0.0473125,-0.007642148528
0.04733333333,-0.008102195337
0.04735416667,-0.008548199199
0.047375,-0.009051985107
0.04739583333,-0.009442136623
0.04741666667,-0.009992345236
0.0474375,-0.01044190302
0.04745833333,-0.01085758209
0.04747916667,-0.01129421964
0.0475,-0.01164251193
0.04752083333,-0.01201540418
0.04754166667,-0.0123517476
0.0475625,-0.01273084432
0.04758333333,-0.01314189192
0.04760416667,-0.01362188067
0.047625,-0.01401000563
0.04764583333,-0.01449334808
0.04766666667,-0.01490078121
0.0476875,-0.01533656847
0.04770833333,-0.01583760232
0.04772916667,-0.01629652828
0.04775,-0.01680536382
0.04777083333,-0.01740348153
0.04779166667,-0.01791740395
0.0478125,-0.01859600656
0.04783333333,-0.01921239682
0.04785416667,-0.0197934024
0.047875,-0.02036403306
0.04789583333,-0.02092112973
0.04791666667,-0.02150689624
0.0479375,-0.02218245342
0.04795833333,-0.02269720659
0.04797916667,-0.02337639593
0.048,-0.02392942458
0.04802083333,-0.02436789311
0.04804166667,-0.02485128678
0.0480625,-0.02521580458
0.04808333333,-0.02559344098
0.04810416667,-0.02597893775
0.048125,-0.02634035051
0.04814583333,-0.02666885965
0.04816666667,-0.02712298185
0.0481875,-0.02751528472
0.04820833333,-0.02783689275
0.04822916667,-0.02823083475
0.04825,-0.02852521837
0.04827083333,-0.02889963984
0.04829166667,-0.02921545133
0.0483125,-0.02950103767
0.04833333333,-0.02983422019
0.04835416667,-0.0302131176
0.048375,-0.03058670275
0.04839583333,-0.03093260527
0.04841666667,-0.03136567026
0.0484375,-0.03177636117
0.04845833333,-0.03218120709
0.04847916667,-0.03271888196
0.0485,-0.03326991946
0.04852083333,-0.0338193588
0.04854166667,-0.0343642123
0.0485625,-0.03492548317
0.04858333333,-0.03539421409
0.04860416667,-0.03585721925
0.048625,-0.0361590907
0.04864583333,-0.03656333312
0.04866666667,-0.03686993942
0.0486875,-0.03718849644
0.04870833333,-0.03746436536
0.04872916667,-0.03769098222
0.04875,-0.03795458376
0.04877083333,-0.03806301206
0.04879166667,-0.03827213868
0.0488125,-0.03854907677
0.04883333333,-0.0387638472
0.04885416667,-0.03892214596
0.048875,-0.03920453787
0.04889583333,-0.03942871839
0.04891666667,-0.03965133429
0.0489375,-0.03989473358
0.04895833333,-0.04012319446
0.04897916667,-0.04042243958
0.049,-0.04069760442
0.04902083333,-0.04089902714
0.04904166667,-0.04107188433
0.0490625,-0.04124802724
0.04908333333,-0.04132838175
0.04910416667,-0.04156289995
0.049125,-0.04167628661
0.04914583333,-0.04200249538
0.04916666667,-0.04225223884
0.0491875,-0.04253365844
0.04920833333,-0.04282297939
0.04922916667,-0.04306301847
0.04925,-0.04335458204
0.04927083333,-0.04368972033
0.04929166667,-0.04398827255
0.0493125,-0.04424067214
0.04933333333,-0.04464026913
0.04935416667,-0.04493623972
0.049375,-0.04525016993
0.04939583333,-0.04563352093
0.04941666667,-0.04592845589
0.0494375,-0.04631718621
0.04945833333,-0.04663882405
0.04947916667,-0.04699737206
0.0495,-0.04734499007
0.04952083333,-0.04772234336
0.04954166667,-0.04802947491
0.0495625,-0.04840071872
0.04958333333,-0.04889458045
0.04960416667,-0.04928501323
0.049625,-0.04976763949
0.04964583333,-0.05015361682
0.04966666667,-0.05054577067
0.0496875,-0.05093417317
0.04970833333,-0.05124895275
0.04972916667,-0.0515723899
0.04975,-0.05183524266
0.04977083333,-0.05215077102
0.04979166667,-0.05230047181
0.0498125,-0.05243733898
0.04983333333,-0.05260809138
0.04985416667,-0.05263113976
0.049875,-0.05271150917
0.04989583333,-0.05289392546
0.04991666667,-0.05308485404
0.0499375,-0.05337588489
0.04995833333,-0.05359595269
0.04997916667,-0.05377264321
0.05,-0.0541385226
0.05002083333,-0.05438356102
0.05004166667,-0.05463910103
0.0500625,-0.05497779325
0.05008333333,-0.05527549982
0.05010416667,-0.0555874072
0.050125,-0.05583487824
0.05014583333,-0.05609020591
0.05016666667,-0.05617342517
0.0501875,-0.05643678829
0.05020833333,-0.05675528944
0.05022916667,-0.05707491562
0.05025,-0.05739757046
0.05027083333,-0.05745880678
0.05029166667,-0.0576098524
0.0503125,-0.05775244907
0.05033333333,-0.0579347536
0.05035416667,-0.05813048407
0.050375,-0.0583271198
0.05039583333,-0.05854178965
0.05041666667,-0.05878835544
0.0504375,-0.05912611261
0.05045833333,-0.05938066542
0.05047916667,-0.05964560807
0.0505,-0.05996022001
0.05052083333,-0.06038003042
0.05054166667,-0.0607005842
0.0505625,-0.06118083373
0.05058333333,-0.06158506498
0.05060416667,-0.06207912788
0.050625,-0.06252065301
0.05064583333,-0.06294606626
0.05066666667,-0.06346764416
0.0506875,-0.06401572376
0.05070833333,-0.06466227025
0.05072916667,-0.06523922086
0.05075,-0.0659083724
0.05077083333,-0.06656182557
0.05079166667,-0.06714856625
0.0508125,-0.06771046668
0.05083333333,-0.06835032254
0.05085416667,-0.0689316988
0.050875,-0.06944928318
0.05089583333,-0.06998770684
0.05091666667,-0.07052490115
0.0509375,-0.07116261125
0.05095833333,-0.07177737355
0.05097916667,-0.0725293234
0.051,-0.07323195785
0.05102083333,-0.07402248681
0.05104166667,-0.07491128147
0.0510625,-0.0759196505
0.05108333333,-0.07689580321
0.05110416667,-0.07792837173
0.051125,-0.07895987481
0.05114583333,-0.07998240739
0.05116666667,-0.0810533762
0.0511875,-0.08210971206
0.05120833333,-0.08313238621
0.05122916667,-0.08418478817
0.05125,-0.08509424329
0.05127083333,-0.0860177055
0.05129166667,-0.08698450029
0.0513125,-0.08791729063
0.05133333333,-0.08885688335
0.05135416667,-0.08981727064
0.051375,-0.09082399309
0.05139583333,-0.09167259932
0.05141666667,-0.0926014185
0.0514375,-0.09353633225
0.05145833333,-0.09446364641
0.05147916667,-0.0953232348
0.0515,-0.0962985456
0.05152083333,-0.09724653512
0.05154166667,-0.0980489254
0.0515625,-0.09900846332
0.05158333333,-0.09994950891
0.05160416667,-0.1009469852
0.051625,-0.1018986702
0.05164583333,-0.1028009653
0.05166666667,-0.1037069187
0.0516875,-0.1044546217
0.05170833333,-0.1053139195
0.05172916667,-0.1061047614
0.05175,-0.1068374962
0.05177083333,-0.1076480448
0.05179166667,-0.1083920524
0.0518125,-0.1091013774
0.05183333333,-0.1098975614
0.05185416667,-0.1106606647
0.051875,-0.1114254892
0.05189583333,-0.112246111
0.05191666667,-0.1129908711
0.0519375,-0.1137980223
0.05195833333,-0.1144918948
0.05197916667,-0.1153498441
0.052,-0.1161092892
0.05202083333,-0.1168819219
0.05204166667,-0.1175748259
0.0520625,-0.1182071567
0.05208333333,-0.1188149452
0.05210416667,-0.119400546
0.052125,-0.120018214
0.05214583333,-0.1205577254
0.05216666667,-0.1212283149
0.0521875,-0.1218398809
0.05220833333,-0.1224684119
0.05222916667,-0.1229719818
0.05225,-0.1234275475
0.05227083333,-0.1239303648
0.05229166667,-0.1244730949
0.0523125,-0.1249966845
0.05233333333,-0.1254098564
0.05235416667,-0.1258772165
0.052375,-0.126314044
0.05239583333,-0.1267602146
0.05241666667,-0.1271667778
0.0524375,-0.1275414228
0.05245833333,-0.1278603226
0.05247916667,-0.1282199174
0.0525,-0.1284554601
0.05252083333,-0.1287077069
0.05254166667,-0.1289584041
0.0525625,-0.1291634589
0.05258333333,-0.1293606758
0.05260416667,-0.1295495182
0.052625,-0.1296840012
0.05264583333,-0.1298549473
0.05266666667,-0.1299858093
0.0526875,-0.1301196069
0.05270833333,-0.1302240938
0.05272916667,-0.1302039325
0.05275,-0.1302582324
0.05277083333,-0.1303792
0.05279166667,-0.13036488
0.0528125,-0.1304735541
0.05283333333,-0.1304303557
0.05285416667,-0.1303592175
0.052875,-0.1301858127
0.05289583333,-0.1301111281
0.05291666667,-0.130119428
0.0529375,-0.1300491393
0.05295833333,-0.1301199645
0.05297916667,-0.1299611926
0.053,-0.1299008578
0.05302083333,-0.1298090369
0.05304166667,-0.129663676
0.0530625,-0.1295003295
0.05308333333,-0.1293402612
0.05310416667,-0.1291297227
0.053125,-0.128767848
0.05314583333,-0.1285332292
0.05316666667,-0.1281113923
0.0531875,-0.1275970936
0.05320833333,-0.1271392554
0.05322916667,-0.126604408
0.05325,-0.1260613799
0.05327083333,-0.1255035251
0.05329166667,-0.1249936
0.0533125,-0.1246158257
0.05333333333,-0.1241000593
0.05335416667,-0.1237137392
0.053375,-0.123234883
0.05339583333,-0.1228068918
0.05341666667,-0.1222830117
0.0534375,-0.1216176525
0.05345833333,-0.1209038496
0.05347916667,-0.1202029958
0.0535,-0.1195937097
0.05352083333,-0.1187724099
0.05354166667,-0.1181026399
0.0535625,-0.1173404902
0.05358333333,-0.1165664867
0.05360416667,-0.1158169284
0.053625,-0.1150941253
0.05364583333,-0.1142743751
0.05366666667,-0.1134310663
0.0536875,-0.1127177849
0.05370833333,-0.1118333936
0.05372916667,-0.1110746562
0.05375,-0.110212341
0.05377083333,-0.1093785465
0.05379166667,-0.1086289585
0.0538125,-0.1076807231
0.05383333333,-0.1068233699
0.05385416667,-0.1058456153
0.053875,-0.1048551947
0.05389583333,-0.1037596241
0.05391666667,-0.1019605175
0.0539375,-0.1006817967
0.05395833333,-0.09939679503
0.05397916667,-0.09828736633
0.054,-0.09733513743
0.05402083333,-0.09630636871
0.05404166667,-0.0953720361
0.0540625,-0.09431711584
0.05408333333,-0.09332598001
0.05410416667,-0.09250914305
0.054125,-0.09160368145
0.05414583333,-0.09069819003
0.05416666667,-0.08987005055
0.0541875,-0.08877065033
0.05420833333,-0.08790485561
0.05422916667,-0.0871110782
0.05425,-0.08612169325
0.05427083333,-0.08543556184
0.05429166667,-0.08454634994
0.0543125,-0.08360788226
0.05433333333,-0.08275420964
0.05435416667,-0.08176197857
0.054375,-0.08081368357
0.05439583333,-0.07987992465
0.05441666667,-0.07884976268
0.0544375,-0.07793194056
0.05445833333,-0.07688505203
0.05447916667,-0.07603059709
0.0545,-0.07507407665
0.05452083333,-0.07413481176
0.05454166667,-0.07347033173
0.0545625,-0.07253367454
0.05458333333,-0.07167568058
0.05460416667,-0.07076157629
0.054625,-0.0698190853
0.05464583333,-0.0688611716
0.05466666667,-0.06809826195
0.0546875,-0.06722261757
0.05470833333,-0.06633598357
0.05472916667,-0.06547155976
0.05475,-0.06467016041
0.05477083333,-0.06369173527
0.05479166667,-0.06273029
0.0548125,-0.06195319071
0.05483333333,-0.06095914543
0.05485416667,-0.06012175232
0.054875,-0.05917613953
0.05489583333,-0.05833216757
0.05491666667,-0.05758437514
0.0549375,-0.05677322298
0.05495833333,-0.05593879893
0.05497916667,-0.05525493249
0.055,-0.05461541563
0.05502083333,-0.05394166708
0.05504166667,-0.05336139351
0.0550625,-0.05281518772
0.05508333333,-0.05228485167
0.05510416667,-0.05187760666
0.055125,-0.05141994357
0.05514583333,-0.05093941465
0.05516666667,-0.05046636239
0.0551875,-0.04997839779
0.05520833333,-0.04946445674
0.05522916667,-0.04886109754
0.05525,-0.0483189486
0.05527083333,-0.04781330004
0.05529166667,-0.04725687951
0.0553125,-0.04674703628
0.05533333333,-0.04609504342
0.05535416667,-0.04547915608
0.055375,-0.04492900893
0.05539583333,-0.04431517422
0.05541666667,-0.04364336655
0.0554375,-0.0429601036
0.05545833333,-0.04227608815
0.05547916667,-0.04170024022
0.0555,-0.04103558138
0.05552083333,-0.04033206776
0.05554166667,-0.03966351226
0.0555625,-0.03896739334
0.05558333333,-0.03829468414
0.05560416667,-0.03747348487
0.055625,-0.03676618263
0.05564583333,-0.03610932082
0.05566666667,-0.03534848616
0.0556875,-0.03459217027
0.05570833333,-0.03381135315
0.05572916667,-0.03303951398
0.05575,-0.03219389915
0.05577083333,-0.03134123981
0.05579166667,-0.03044925258
0.0558125,-0.02954637446
0.05583333333,-0.02868952416
0.05585416667,-0.02798619308
0.055875,-0.02714931406
0.05589583333,-0.02638542838
0.05591666667,-0.02576807141
0.0559375,-0.02503313497
0.05595833333,-0.02433982491
0.05597916667,-0.02366289496
0.056,-0.02289861627
0.05602083333,-0.02229131572
0.05604166667,-0.02154307067
0.0560625,-0.02093990147
0.05608333333,-0.02035800181
0.05610416667,-0.0195960179
0.056125,-0.01899692975
0.05614583333,-0.01834461093
0.05616666667,-0.01767410524
0.0561875,-0.01704654284
0.05620833333,-0.01637360826
0.05622916667,-0.01569051668
0.05625,-0.01499309577
0.05627083333,-0.0143943131
0.05629166667,-0.01360555924
0.0563125,-0.01291743293
0.05633333333,-0.01220637187
0.05635416667,-0.01160508674
0.056375,-0.01087816246
0.05639583333,-0.01018460095
0.05641666667,-0.009491972625
0.0564375,-0.008707065135
0.05645833333,-0.007989631034
0.05647916667,-0.007201244123
0.0565,-0.006500153337
0.05652083333,-0.005804516375
0.05654166667,-0.004993358627
0.0565625,-0.004224786069
0.05658333333,-0.003362996737
0.05660416667,-0.002468812279
0.056625,-0.001701887348
0.05664583333,-0.0007206104929
0.05666666667,0.0001702795271
0.0566875,0.001035132911
0.05670833333,0.002000723965
0.05672916667,0.002798668807
0.05675,0.003611642402
0.05677083333,0.004420380574
0.05679166667,0.005140811205
0.0568125,0.00594622083
0.05683333333,0.006661711726
0.05685416667,0.007342705037
0.056875,0.008120123297
0.05689583333,0.008793390356
0.05691666667,0.009494398721
0.0569375,0.01020045485
0.05695833333,0.01082784962
0.05697916667,0.01141482592
0.057,0.01200910192
0.05702083333,0.01263679378
0.05704166667,0.01325043105
0.0570625,0.01397979353
0.05708333333,0.01465213299
0.05710416667,0.0152454786
0.057125,0.01601605304
0.05714583333,0.01672984287
0.05716666667,0.01740476117
0.0571875,0.01814980991
0.05720833333,0.01879569888
0.05722916667,0.0195050966
0.05725,0.02016654983
0.05727083333,0.02071889676
0.05729166667,0.02135441639
0.0573125,0.02193180099
0.05733333333,0.02261456847
0.05735416667,0.02328447439
0.057375,0.02392012253
0.05739583333,0.02462806925
0.05741666667,0.02526641265
0.0574375,0.02592337877
0.05745833333,0.02654323168
0.05747916667,0.02717854083
0.0575,0.02788607962
0.05752083333,0.02852207236
0.05754166667,0.02911479026
0.0575625,0.02960622869
0.05758333333,0.0300812684
0.05760416667,0.0305498261
0.057625,0.03108600713
0.05764583333,0.0316651091
0.05766666667,0.03215840459
0.0576875,0.03272812814
0.05770833333,0.03314387053
0.05772916667,0.03361257538
0.05775,0.03411469981
0.05777083333,0.034576267
0.05779166667,0.03503971547
0.0578125,0.03541690484
0.05783333333,0.03594186157
0.05785416667,0.03637761995
0.057875,0.03681519628
0.05789583333,0.03720550239
0.05791666667,0.03761162609
0.0579375,0.03804101795
0.05795833333,0.03840026632
0.05797916667,0.03878298402
0.058,0.03911394998
0.05802083333,0.03945348039
0.05804166667,0.03973907232
0.0580625,0.04002844542
0.05808333333,0.04033563286
0.05810416667,0.04062139988
0.058125,0.04094728827
0.05814583333,0.04118825495
0.05816666667,0.04151600227
0.0581875,0.04184260964
0.05820833333,0.04219058156
0.05822916667,0.04252723604
0.05825,0.04291759804
0.05827083333,0.04328266904
0.05829166667,0.04365531728
0.0583125,0.04397399724
0.05833333333,0.0443200618
0.05835416667,0.04465653375
0.058375,0.04501471668
0.05839583333,0.04543863609
0.05841666667,0.04588010162
0.0584375,0.04626288638
0.05845833333,0.04664331675
0.05847916667,0.04705677554
0.0585,0.04743956402
0.05852083333,0.04782151431
0.05854166667,0.04825478047
0.0585625,0.04867594689
0.05858333333,0.04899538681
0.05860416667,0.04927671701
0.058625,0.04955999553
0.05864583333,0.04991047084
0.05866666667,0.05031467602
0.0586875,0.05077801645
0.05870833333,0.05126807094
0.05872916667,0.05173859373
0.05875,0.05223885551
0.05877083333,0.05268080905
0.05879166667,0.05297825113
0.0588125,0.05335078016
0.05883333333,0.05370825902
0.05885416667,0.05397640914
0.058875,0.05433334783
0.05889583333,0.05448240414
0.05891666667,0.05474710464
0.0589375,0.05489362776
0.05895833333,0.05509351566
0.05897916667,0.05529789999
0.059,0.05543353781
0.05902083333,0.05566757172
0.05904166667,0.05598518997
0.0590625,0.05624797195
0.05908333333,0.05658422783
0.05910416667,0.05686978996
0.059125,0.05721509457
0.05914583333,0.0577442199
0.05916666667,0.05814178288
0.0591875,0.05860529095
0.05920833333,0.05911173299
0.05922916667,0.05958707631
0.05925,0.06007698178
0.05927083333,0.06050534174
0.05929166667,0.06099408492
0.0593125,0.06151331589
0.05933333333,0.06195880473
0.05935416667,0.06238085404
0.059375,0.06266446412
0.05939583333,0.06299622357
0.05941666667,0.06329485029
0.0594375,0.06362844259
0.05945833333,0.06386337429
0.05947916667,0.06423056126
0.0595,0.06441866606
0.05952083333,0.06466177851
0.05954166667,0.06499601901
0.0595625,0.06526920199
0.05958333333,0.06558493525
0.05960416667,0.06584646553
0.059625,0.06606417894
0.05964583333,0.06626869738
0.05966666667,0.06667283922
0.0596875,0.06694575399
0.05970833333,0.06724805385
0.05972916667,0.06762117147
0.05975,0.06792205572
0.05977083333,0.06827193499
0.05979166667,0.0685280636
0.0598125,0.06878147274
0.05983333333,0.06903338432
0.05985416667,0.06917896122
0.059875,0.06942769885
0.05989583333,0.06961043924
0.05991666667,0.0698030442
0.0599375,0.07005570829
0.05995833333,0.07028228045
0.05997916667,0.07049755007
0.06,0.07079481333
0.06002083333,0.07109712064
0.06004166667,0.07132834196
0.0600625,0.07159458101
0.06008333333,0.07197791338
0.06010416667,0.07216058671
0.060125,0.07256606221
0.06014583333,0.07282374799
0.06016666667,0.07310520858
0.0601875,0.0735187158
0.06020833333,0.07380535454
0.06022916667,0.07420955598
0.06025,0.0744298026
0.06027083333,0.07470072061
0.06029166667,0.07502360642
0.0603125,0.07525460422
0.06033333333,0.07554554194
0.06035416667,0.07590900362
0.060375,0.07619361579
0.06039583333,0.07647339255
0.06041666667,0.07672947645
0.0604375,0.07705061883
0.06045833333,0.07735673338
0.06047916667,0.07762011886
0.0605,0.07795929164
0.06052083333,0.0781872496
0.06054166667,0.07845841348
0.0605625,0.07865840942
0.06058333333,0.07888094336
0.06060416667,0.07904434949
0.060625,0.07927283645
0.06064583333,0.0794923678
0.06066666667,0.07964862883
0.0606875,0.07989067584
0.06070833333,0.08018311113
0.06072916667,0.08045387268
0.06075,0.08076476306
0.06077083333,0.08117738366
0.06079166667,0.08163081855
0.0608125,0.0820582509
0.06083333333,0.0824695006
0.06085416667,0.08291837573
0.060875,0.08335189521
0.06089583333,0.08391112834
0.06091666667,0.08461987227
0.0609375,0.08541401476
0.06095833333,0.08618652821
0.06097916667,0.08702879399
0.061,0.08788971603
0.06102083333,0.08865654469
0.06104166667,0.08956673741
0.0610625,0.09031447768
0.06108333333,0.09108266979
0.06110416667,0.0918707177
0.061125,0.09264109284
0.06114583333,0.09341671318
0.06116666667,0.09425476193
0.0611875,0.09516683221
0.06120833333,0.09595490992
0.06122916667,0.09693380445
0.06125,0.09780810028
0.06127083333,0.09874985367
0.06129166667,0.09972348064
0.0613125,0.1006439924
0.06133333333,0.1016871631
0.06135416667,0.1025938392
0.061375,0.1036788821
0.06139583333,0.1047563627
0.06141666667,0.1057109833
0.0614375,0.1067695767
0.06145833333,0.1077979878
0.06147916667,0.1087948903
0.0615,0.1097760722
0.06152083333,0.1107372567
0.06154166667,0.1116271093
0.0615625,0.1125284135
0.06158333333,0.113416642
0.06160416667,0.114283964
0.061625,0.1151050925
0.06164583333,0.1158524454
0.06166666667,0.1166618019
0.0616875,0.1173632815
0.06170833333,0.1181280464
0.06172916667,0.1188672036
0.06175,0.1195107922
0.06177083333,0.1201057509
0.06179166667,0.1206504181
0.0618125,0.1212193668
0.06183333333,0.1218046993
0.06185416667,0.1224083304
0.061875,0.1229283363
0.06189583333,0.1234780103
0.06191666667,0.1240260676
0.0619375,0.1245565638
0.06195833333,0.1251517534
0.06197916667,0.1257637441
0.062,0.1263492703
0.06202083333,0.1267684698
0.06204166667,0.1272331774
0.0620625,0.1277095526
0.06208333333,0.1281288117
0.06210416667,0.1285447329
0.062125,0.1289934665
0.06214583333,0.1294366866
0.06216666667,0.1298473775
0.0621875,0.130305931
0.06220833333,0.1309287399
0.06222916667,0.1313585639
0.06225,0.131764397
0.06227083333,0.1321415305
0.06229166667,0.1323588192
0.0623125,0.1326045245
0.06233333333,0.1328326017
0.06235416667,0.1331260353
0.062375,0.1332425773
0.06239583333,0.1334388256
0.06241666667,0.1336439848
0.0624375,0.1337720901
0.06245833333,0.1339050084
0.06247916667,0.1340718716
0.0625,0.1341022104
0.06252083333,0.1340741366
0.06254166667,0.1338982135
0.0625625,0.1338011622
0.06258333333,0.1338111311
0.06260416667,0.133520022
0.062625,0.1333041042
0.06264583333,0.133077845
0.06266666667,0.1327471882
0.0626875,0.132472232
0.06270833333,0.1321214437
0.06272916667,0.1317999661
0.06275,0.1314738989
0.06277083333,0.1312262416
0.06279166667,0.1309210658
0.0628125,0.1306748539
0.06283333333,0.1304716617
0.06285416667,0.130207777
0.062875,0.1299421042
0.06289583333,0.1296514422
0.06291666667,0.129379645
0.0629375,0.1290200353
0.06295833333,0.1287212223
0.06297916667,0.1283783764
0.063,0.1280341893
0.06302083333,0.1277200133
0.06304166667,0.1274460852
0.0630625,0.1272192001
0.06308333333,0.1268561184
0.06310416667,0.1265577823
0.063125,0.1262402385
0.06314583333,0.1260324568
0.06316666667,0.1258295923
0.0631875,0.125563398
0.06320833333,0.1253946424
0.06322916667,0.1250519454
0.06325,0.1246796548
0.06327083333,0.124332495
0.06329166667,0.1240672246
0.0633125,0.1238033399
0.06333333333,0.1236091256
0.06335416667,0.1234259531
0.063375,0.1231837273
0.06339583333,0.1229515001
0.06341666667,0.1227666512
0.0634375,0.1224860102
0.06345833333,0.1222220287
0.06347916667,0.1219334304
0.0635,0.1216165349
0.06352083333,0.1212524399
0.06354166667,0.1208466515
0.0635625,0.1205381379
0.06358333333,0.120091334
0.06360416667,0.1196499765
0.063625,0.1192332059
0.06364583333,0.1187111437
0.06366666667,0.1181822121
0.0636875,0.1175879985
0.06370833333,0.116980955
0.06372916667,0.1163675785
0.06375,0.1156747118
0.06377083333,0.1151561514
0.06379166667,0.1145174876
0.0638125,0.1138370782
0.06383333333,0.1133023724
0.06385416667,0.1126957312
0.063875,0.1120963246
0.06389583333,0.111507833
0.06391666667,0.1108542904
0.0639375,0.110193789
0.06395833333,0.109563984
0.06397916667,0.1088685393
0.064,0.1082115024
0.06402083333,0.1074779481
0.06404166667,0.1067228466
0.0640625,0.106055364
0.06408333333,0.1053347886
0.06410416667,0.1046480238
0.064125,0.1040133089
0.06414583333,0.1033543348
0.06416666667,0.1027770564
0.0641875,0.1020276546
0.06420833333,0.1012907401
0.06422916667,0.1014299169
0.06425,0.1015037373
0.06427083333,0.1013418883
0.06429166667,0.1013962403
0.0643125,0.1014578193
0.06433333333,0.1012036949
0.06435416667,0.1007852778
0.064375,0.1003874913
0.06439583333,0.09988817573
0.06441666667,0.09931705147
0.0644375,0.09853776544
0.06445833333,0.09772627801
0.06447916667,0.09681568295
0.0645,0.0958462432
0.06452083333,0.0947240144
0.06454166667,0.09356341511
0.0645625,0.09242267162
0.06458333333,0.09118033201
0.06460416667,0.09008637071
0.064625,0.08888502419
0.06464583333,0.08774923533
0.06466666667,0.08661145717
0.0646875,0.08544290811
0.06470833333,0.08430292457
0.06472916667,0.08317988366
0.06475,0.0821184665
0.06477083333,0.08101816475
0.06479166667,0.07985939085
0.0648125,0.07875525951
0.06483333333,0.07756243646
0.06485416667,0.07641337067
0.064875,0.07527600974
0.06489583333,0.07409121841
0.06491666667,0.07291164994
0.0649375,0.07171942294
0.06495833333,0.07045911998
0.06497916667,0.06922850013
0.065,0.06800369173
0.06502083333,0.06680008024
0.06504166667,0.0656363368
0.0650625,0.06451042742
0.06508333333,0.06348682195
0.06510416667,0.0624114275
0.065125,0.06135107949
0.06514583333,0.06036943942
0.06516666667,0.05942104012
0.0651875,0.05855556205
0.06520833333,0.057595063
0.06522916667,0.05672413483
0.06525,0.05587429926
0.06527083333,0.05502922833
0.06529166667,0.054170385
0.0653125,0.05334012955
0.06533333333,0.05252208561
0.06535416667,0.05169289932
0.065375,0.05138846114
0.06539583333,0.05112009495
0.06541666667,0.05091158673
0.0654375,0.05074114352
0.06545833333,0.05042338744
0.06547916667,0.05030671507
0.0655,0.05001845956
0.06552083333,0.04971369728
0.06554166667,0.04944795743
0.0655625,0.04901569709
0.06558333333,0.04858171195
0.06560416667,0.04811054841
0.065625,0.04748342931
0.06564583333,0.04684006795
0.06566666667,0.04609031603
0.0656875,0.04533611238
0.06570833333,0.04451455548
0.06572916667,0.04365907237
0.06575,0.04287810624
0.06577083333,0.04185286909
0.06579166667,0.04094247892
0.0658125,0.04014766961
0.06583333333,0.03931910545
0.06585416667,0.03845452517
0.065875,0.03772750497
0.06589583333,0.03702775389
0.06591666667,0.03629078716
0.0659375,0.03549880907
0.06595833333,0.03470528126
0.06597916667,0.03394995257
0.066,0.03311978653
0.06602083333,0.03224798664
0.06604166667,0.03139381483
0.0660625,0.03059030883
0.06608333333,0.02986973897
0.06610416667,0.02914290689
0.066125,0.02828615345
0.06614583333,0.02751501463
0.06616666667,0.02669520676
0.0661875,0.02587029524
0.06620833333,0.02503350936
0.06622916667,0.02421832457
0.06625,0.02340232208
0.06627083333,0.02258328907
0.06629166667,0.02170998417
0.0663125,0.02100380696
0.06633333333,0.02036959119
0.06635416667,0.01960732974
0.066375,0.01887138374
0.06639583333,0.01815935783
0.06641666667,0.01736869477
0.0664375,0.01665889658
0.06645833333,0.01595195569
0.06647916667,0.01527112722
0.0665,0.01458956674
0.06652083333,0.01397059858
0.06654166667,0.01324640587
0.0665625,0.0126322154
0.06658333333,0.01201534923
0.06660416667,0.01139357686
0.066625,0.01078998018
0.06664583333,0.01008473802
0.06666666667,0.009455145337
0.0666875,0.008851362392
0.06670833333,0.008199198171
0.06672916667,0.007528733462
0.06675,0.006830534898
0.06677083333,0.006165637635
0.06679166667,0.005585282575
0.0668125,0.004985090345
0.06683333333,0.004337920807
0.06685416667,0.003619447351
0.066875,0.002860118868
0.06689583333,0.002116731601
0.06691666667,0.001330683008
0.0669375,0.0004917796468
0.06695833333,-0.0002493995707
0.06697916667,-0.0009786089649
0.067,-0.001804437605
0.06702083333,-0.002595030935
0.06704166667,-0.003331676591
0.0670625,-0.004159437492
0.06708333333,-0.004877927247
0.06710416667,-0.00568822166
0.067125,-0.006407269277
0.06714583333,-0.007219759747
0.06716666667,-0.007992838509
0.0671875,-0.008734070696
0.06720833333,-0.009452440776
0.06722916667,-0.0101946136
0.06725,-0.01100957766
0.06727083333,-0.01173908636
0.06729166667,-0.01244492363
0.0673125,-0.01316503715
0.06733333333,-0.01374415308
0.06735416667,-0.01436259318
0.067375,-0.01499223337
0.06739583333,-0.01550708059
0.06741666667,-0.01605713181
0.0674375,-0.01670664921
0.06745833333,-0.01725915633
0.06747916667,-0.01784431003
0.0675,-0.01843261719
0.06752083333,-0.01902087778
0.06754166667,-0.01960902102
0.0675625,-0.02010100521
0.06758333333,-0.02055277117
0.06760416667,-0.02105357684
0.067625,-0.02160641924
0.06764583333,-0.02218127809
0.06766666667,-0.02280080877
0.0676875,-0.02343540639
0.06770833333,-0.02399514243
0.06772916667,-0.02457985282
0.06775,-0.02510196716
0.06777083333,-0.02556044795
0.06779166667,-0.02607975341
0.0678125,-0.02664436586
0.06783333333,-0.02725522034
0.06785416667,-0.02791079879
0.067875,-0.02853138745
0.06789583333,-0.02904938906
0.06791666667,-0.0294515416
0.0679375,-0.02989957482
0.06795833333,-0.03031875007
0.06797916667,-0.03060322814
0.068,-0.03097153828
0.06802083333,-0.03124652244
0.06804166667,-0.03159476817
0.0680625,-0.03197712079
0.06808333333,-0.03227634355
0.06810416667,-0.0326135084
0.068125,-0.03295295313
0.06814583333,-0.0333118923
0.06816666667,-0.03357373551
0.0681875,-0.033864595
0.06820833333,-0.03416008875
0.06822916667,-0.03440786898
0.06825,-0.0346567221
0.06827083333,-0.03488592803
0.06829166667,-0.03522940725
0.0683125,-0.03559017554
0.06833333333,-0.03587330505
0.06835416667,-0.03612098843
0.068375,-0.03634783253
0.06839583333,-0.03659463301
0.06841666667,-0.0368736349
0.0684375,-0.03729102761
0.06845833333,-0.03768371418
0.06847916667,-0.03810466453
0.0685,-0.03852324188
0.06852083333,-0.03885223344
0.06854166667,-0.03918838501
0.0685625,-0.03959608451
0.06858333333,-0.03993639722
0.06860416667,-0.0402078703
0.068625,-0.04054707289
0.06864583333,-0.04090549052
0.06866666667,-0.04128540307
0.0686875,-0.04164149985
0.06870833333,-0.0419504419
0.06872916667,-0.04230280966
0.06875,-0.04260973632
0.06877083333,-0.04292115942
0.06879166667,-0.0431791991
0.0688125,-0.04333087429
0.06883333333,-0.04356709123
0.06885416667,-0.04375773668
0.068875,-0.04391988739
0.06889583333,-0.04415131733
0.06891666667,-0.04439361393
0.0689375,-0.04456590861
0.06895833333,-0.0448288694
0.06897916667,-0.04507539421
0.069,-0.04536251724
0.06902083333,-0.04566498846
0.06904166667,-0.04595408961
0.0690625,-0.0463197045
0.06908333333,-0.04663760215
0.06910416667,-0.04707284644
0.069125,-0.04747498035
0.06914583333,-0.04780795798
0.06916666667,-0.04814134538
0.0691875,-0.04841835797
0.06920833333,-0.04885663837
0.06922916667,-0.04922767356
0.06925,-0.04961998016
0.06927083333,-0.05010912195
0.06929166667,-0.05051162466
0.0693125,-0.05086957663
0.06933333333,-0.05115525797
0.06935416667,-0.05145225301
0.069375,-0.05182721838
0.06939583333,-0.05211455747
0.06941666667,-0.0523500517
0.0694375,-0.05258952826
0.06945833333,-0.05283968523
0.06947916667,-0.05309680849
0.0695,-0.05338576436
0.06952083333,-0.05372429639
0.06954166667,-0.05412266031
0.0695625,-0.05454906076
0.06958333333,-0.05503207818
0.06960416667,-0.05547479168
0.069625,-0.05590147898
0.06964583333,-0.05632085726
0.06966666667,-0.05674787611
0.0696875,-0.05712677166
0.06970833333,-0.05746886507
0.06972916667,-0.0578680858
0.06975,-0.05812309682
0.06977083333,-0.05846112221
0.06979166667,-0.05878088623
0.0698125,-0.059016902
0.06983333333,-0.05925356597
0.06985416667,-0.05942776799
0.069875,-0.05961850286
0.06989583333,-0.05969152972
0.06991666667,-0.05981950089
0.0699375,-0.06000922248
0.06995833333,-0.06013807654
0.06997916667,-0.0603595674
0.07,-0.06061501056
0.07002083333,-0.06090048328
0.07004166667,-0.06118762866
0.0700625,-0.06135476381
0.07008333333,-0.0615818426
0.07010416667,-0.06180335581
0.070125,-0.06194953248
0.07014583333,-0.06207130477
0.07016666667,-0.06221894175
0.0701875,-0.0623864606
0.07020833333,-0.06253129989
0.07022916667,-0.06263429672
0.07025,-0.0627162829
0.07027083333,-0.06284766644
0.07029166667,-0.06290666759
0.0703125,-0.06301955134
0.07033333333,-0.06319954246
0.07035416667,-0.063338615
0.070375,-0.06350266933
0.07039583333,-0.06360916048
0.07041666667,-0.06383131444
0.0704375,-0.06411902606
0.07045833333,-0.06424235553
0.07047916667,-0.06438789517
0.0705,-0.06456227601
0.07052083333,-0.06481805444
0.07054166667,-0.06509742141
0.0705625,-0.06536316127
0.07058333333,-0.06565231085
0.07060416667,-0.06581927091
0.070625,-0.06602110714
0.07064583333,-0.06618924439
0.07066666667,-0.06638751924
0.0706875,-0.06652119756
0.07070833333,-0.06662709266
0.07072916667,-0.06677495688
0.07075,-0.06686460227
0.07077083333,-0.06694340706
0.07079166667,-0.06708169729
0.0708125,-0.06717053056
0.07083333333,-0.0673680082
0.07085416667,-0.06753941625
0.070875,-0.06779456884
0.07089583333,-0.06810768694
0.07091666667,-0.06843842566
0.0709375,-0.06884738058
0.07095833333,-0.06929543614
0.07097916667,-0.06983730942
0.071,-0.07033816725
0.07102083333,-0.07089875638
0.07104166667,-0.07150570303
0.0710625,-0.07209146768
0.07108333333,-0.07280535251
0.07110416667,-0.07346282899
0.071125,-0.07419285923
0.07114583333,-0.07501199096
0.07116666667,-0.0757612735
0.0711875,-0.07657729834
0.07120833333,-0.07743798941
0.07122916667,-0.07826710492
0.07125,-0.07914942503
0.07127083333,-0.08004954457
0.07129166667,-0.08081433177
0.0713125,-0.08155912906
0.07133333333,-0.08243280649
0.07135416667,-0.0834408775
0.071375,-0.08433826268
0.07139583333,-0.08517540991
0.07141666667,-0.0860292986
0.0714375,-0.08689963073
0.07145833333,-0.0877193287
0.07147916667,-0.08848182112
0.0715,-0.08922743052
0.07152083333,-0.08995383978
0.07154166667,-0.09075263888
0.0715625,-0.09158654511
0.07158333333,-0.09260891378
0.07160416667,-0.09369986504
0.071625,-0.09472468495
0.07164583333,-0.09571948647
0.07166666667,-0.09667569399
0.0716875,-0.09760782868
0.07170833333,-0.0985480547
0.07172916667,-0.09951288253
0.07175,-0.1003808677
0.07177083333,-0.1011998579
0.07179166667,-0.1020892709
0.0718125,-0.1028841361
0.07183333333,-0.1036094651
0.07185416667,-0.1044945121
0.071875,-0.1052740365
0.07189583333,-0.1060340181
0.07191666667,-0.1068048701
0.0719375,-0.1074614301
0.07195833333,-0.108109206
0.07197916667,-0.1089091003
0.072,-0.1096720994
0.07202083333,-0.1104158163
0.07204166667,-0.111187391
0.0720625,-0.1118273884
0.07208333333,-0.1125107035
0.07210416667,-0.1132003218
0.072125,-0.1139104366
0.07214583333,-0.1146082357
0.07216666667,-0.1154180542
0.0721875,-0.1161439866
0.07220833333,-0.1168953031
0.07222916667,-0.1176672801
0.07225,-0.1183645949
0.07227083333,-0.1191555485
0.07229166667,-0.1199062467
0.0723125,-0.1206079796
0.07233333333,-0.1212840751
0.07235416667,-0.1218686998
0.072375,-0.1224171445
0.07239583333,-0.1229432598
0.07241666667,-0.1233232096
0.0724375,-0.1237515509
0.07245833333,-0.124009423
0.07247916667,-0.124236457
0.0725,-0.1245332137
0.07252083333,-0.1246325821
0.07254166667,-0.1248394325
0.0725625,-0.1250502318
0.07258333333,-0.1251331717
0.07260416667,-0.1253269911
0.072625,-0.1253903508
0.07264583333,-0.1254754514
0.07266666667,-0.1254777461
0.0726875,-0.125461027
0.07270833333,-0.1255193353
0.07272916667,-0.1254017502
0.07275,-0.1253522635
0.07277083333,-0.1252521574
0.07279166667,-0.1250994056
0.0728125,-0.1249940917
0.07283333333,-0.1247483343
0.07285416667,-0.124459669
0.072875,-0.1241800338
0.07289583333,-0.1238051653
0.07291666667,-0.1234404743
0.0729375,-0.123151727
0.07295833333,-0.1227829903
0.07297916667,-0.1223931313
0.073,-0.1220658123
0.07302083333,-0.1217447147
0.07304166667,-0.1214433014
0.0730625,-0.1212314293
0.07308333333,-0.1209249794
0.07310416667,-0.1206063703
0.073125,-0.120321922
0.07314583333,-0.1199958473
0.07316666667,-0.1196062416
0.0731875,-0.1192303002
0.07320833333,-0.1190034002
0.07322916667,-0.1187007949
0.07325,-0.1183564365
0.07327083333,-0.1179801077
0.07329166667,-0.1175778359
0.0733125,-0.1171670929
0.07333333333,-0.1167752519
0.07335416667,-0.1164558977
0.073375,-0.1160102934
0.07339583333,-0.1156553626
0.07341666667,-0.1153316796
0.0734375,-0.1147407442
0.07345833333,-0.1143109202
0.07347916667,-0.1138433889
0.0735,-0.113319993
0.07352083333,-0.112994656
0.07354166667,-0.1124598682
0.0735625,-0.1119346619
0.07358333333,-0.1114278883
0.07360416667,-0.110778302
0.073625,-0.1101349816
0.07364583333,-0.1097034439
0.07366666667,-0.1092037037
0.0736875,-0.108801648
0.07370833333,-0.1084844247
0.07372916667,-0.1080141217
0.07375,-0.1076134592
0.07377083333,-0.1072430089
0.07379166667,-0.1067746133
0.0738125,-0.1064028665
0.07383333333,-0.1060540006
0.07385416667,-0.1056705266
0.073875,-0.1052779928
0.07389583333,-0.1048930511
0.07391666667,-0.1044721156
0.0739375,-0.1039877683
0.07395833333,-0.1035415232
0.07397916667,-0.1029678658
0.074,-0.1023331061
0.07402083333,-0.101718612
0.07404166667,-0.1010776684
0.0740625,-0.1004679054
0.07408333333,-0.09981200099
0.07410416667,-0.09911944717
0.074125,-0.09846094251
0.07414583333,-0.09773956984
0.07416666667,-0.09696336836
0.0741875,-0.09620543569
0.07420833333,-0.0954124555
0.07422916667,-0.09456512332
0.07425,-0.09372811764
0.07427083333,-0.09284968674
0.07429166667,-0.09206037968
0.0743125,-0.0911622867
0.07433333333,-0.09029641002
0.07435416667,-0.08951163292
0.074375,-0.08865391463
0.07439583333,-0.08773710579
0.07441666667,-0.08671907336
0.0744375,-0.0855756253
0.07445833333,-0.08453282714
0.07447916667,-0.08348977566
0.0745,-0.08252549171
0.07452083333,-0.08165416121
0.07454166667,-0.0806723088
0.0745625,-0.07947123051
0.07458333333,-0.07812407613
0.07460416667,-0.07698440552
0.074625,-0.07585339248
0.07464583333,-0.07483613491
0.07466666667,-0.07394067198
0.0746875,-0.07302512228
0.07470833333,-0.07220458239
0.07472916667,-0.07150421292
0.07475,-0.0707475692
0.07477083333,-0.06995094568
0.07479166667,-0.06925006956
0.0748125,-0.06846825033
0.07483333333,-0.06777808815
0.07485416667,-0.06708903611
0.074875,-0.06637133658
0.07489583333,-0.06568453461
0.07491666667,-0.06483535469
0.0749375,-0.06407079846
0.07495833333,-0.06332678348
0.07497916667,-0.06256234646
0.075,-0.06178053096
0.07502083333,-0.06099093705
0.07504166667,-0.06017290056
0.0750625,-0.05943373963
0.07508333333,-0.0586880371
0.07510416667,-0.05793756992
0.075125,-0.05722561106
0.07514583333,-0.05638176575
0.07516666667,-0.05553998426
0.0751875,-0.05480017141
0.07520833333,-0.05402958021
0.07522916667,-0.0532470271
0.07525,-0.05245775357
0.07527083333,-0.05165060237
0.07529166667,-0.05089678988
0.0753125,-0.0501460135
0.07533333333,-0.04938546196
0.07535416667,-0.04864425212
0.075375,-0.04800866917
0.07539583333,-0.0473606661
0.07541666667,-0.04665258154
0.0754375,-0.04599980265
0.07545833333,-0.04532687366
0.07547916667,-0.04458975047
0.0755,-0.04389529303
0.07552083333,-0.04327014461
0.07554166667,-0.04268265143
0.0755625,-0.0420024991
0.07558333333,-0.04114834964
0.07560416667,-0.03996320441
0.075625,-0.03877741098
0.07564583333,-0.03777540103
0.07566666667,-0.03695448488
0.0756875,-0.03616537154
0.07570833333,-0.03525737673
0.07572916667,-0.03440629691
0.07575,-0.03382260352
0.07577083333,-0.03286454827
0.07579166667,-0.03195576742
0.0758125,-0.03125749901
0.07583333333,-0.03029645793
0.07585416667,-0.02958407067
0.075875,-0.02894951403
0.07589583333,-0.0284266118
0.07591666667,-0.02795000002
0.0759375,-0.02743509598
0.07595833333,-0.02715878189
0.07597916667,-0.02680705301
0.076,-0.02655751817
0.07602083333,-0.02636662126
0.07604166667,-0.02617786266
0.0760625,-0.02588250302
0.07608333333,-0.02565457486
0.07610416667,-0.02548152767
0.076125,-0.02513294108
0.07614583333,-0.02485548146
0.07616666667,-0.02454286255
0.0761875,-0.02410325408
0.07620833333,-0.02374703065
0.07622916667,-0.02331472933
0.07625,-0.022941323
0.07627083333,-0.02253264934
0.07629166667,-0.02205670998
0.0763125,-0.02166055888
0.07633333333,-0.02117362991
0.07635416667,-0.02067965083
0.076375,-0.02015770227
0.07639583333,-0.01959993131
0.07641666667,-0.01913593709
0.0764375,-0.0185626559
0.07645833333,-0.01802560687
0.07647916667,-0.01746222749
0.0765,-0.01684008725
0.07652083333,-0.01630277932
0.07654166667,-0.01554309949
0.0765625,-0.01477010176
0.07658333333,-0.01398658101
0.07660416667,-0.01321473718
0.076625,-0.01247051172
0.07664583333,-0.01171960123
0.07666666667,-0.01096958946
0.0766875,-0.01016610395
0.07670833333,-0.009393982589
0.07672916667,-0.008572374471
0.07675,-0.007818599232
0.07677083333,-0.007055549417
0.07679166667,-0.006305861287
0.0768125,-0.005476568826
0.07683333333,-0.004616654944
0.07685416667,-0.003833264578
0.076875,-0.003007200547
0.07689583333,-0.002226109849
0.07691666667,-0.001459624385
0.0769375,-0.0006652765442
0.07695833333,1.006689854e-05
0.07697916667,0.0007559619844
0.077,0.001475839177
0.07702083333,0.002107032109
0.07704166667,0.00284316414
0.0770625,0.003510759911
0.07708333333,0.004191114567
0.07710416667,0.004873593338
0.077125,0.005444011651
0.07714583333,0.006011351012
0.07716666667,0.006572479382
0.0771875,0.007090281695
0.07720833333,0.007720672525
0.07722916667,0.008241383359
0.07725,0.008753694594
0.07727083333,0.009280429222
0.07729166667,0.009673004039
0.0773125,0.01017624605
0.07733333333,0.01061812509
0.07735416667,0.01106711477
0.077375,0.01157794707
0.07739583333,0.01202607062
0.07741666667,0.01251515001
0.0774375,0.01298216451
0.07745833333,0.01345908735
0.07747916667,0.01406227052
0.0775,0.01462918613
0.07752083333,0.01520279422
0.07754166667,0.01573251002
0.0775625,0.01626429148
0.07758333333,0.0167729985
0.07760416667,0.01725853607
0.077625,0.01775012352
0.07764583333,0.01826057583
0.07766666667,0.0187644735
0.0776875,0.01928205416
0.07770833333,0.01970273629
0.07772916667,0.02014020644
0.07775,0.02066008933
0.07777083333,0.02112802677
0.07779166667,0.02152915671
0.0778125,0.02189454436
0.07783333333,0.02231644094
0.07785416667,0.02269405127
0.077875,0.02308780514
0.07789583333,0.02353540994
0.07791666667,0.02394880168
0.0779375,0.02439112216
0.07795833333,0.02481787652
0.07797916667,0.02521697059
0.078,0.02558898926
0.07802083333,0.02593586408
0.07804166667,0.0263022501
0.0780625,0.02663700841
0.07808333333,0.02699364536
0.07810416667,0.02741449885
0.078125,0.0278271921
0.07814583333,0.02817243896
0.07816666667,0.02855826728
0.0781875,0.02895108052
0.07820833333,0.02934616245
0.07822916667,0.02978852019
0.07825,0.030211417
0.07827083333,0.03062774055
0.07829166667,0.03113892861
0.0783125,0.03161355108
0.07833333333,0.03205040842
0.07835416667,0.03249037638
0.078375,0.03304633126
0.07839583333,0.033574339
0.07841666667,0.03413560241
0.0784375,0.03474561125
0.07845833333,0.03527650237
0.07847916667,0.03584900871
0.0785,0.03633295372
0.07852083333,0.03678603843
0.07854166667,0.03725783527
0.0785625,0.03767196834
0.07858333333,0.0380490534
0.07860416667,0.03837764636
0.078625,0.03863970935
0.07864583333,0.03885995597
0.07866666667,0.03907696158
0.0786875,0.03934858367
0.07870833333,0.03961291909
0.07872916667,0.03985456377
0.07875,0.04009727761
0.07877083333,0.04028293118
0.07879166667,0.04043901712
0.0788125,0.04066758603
0.07883333333,0.04096726701
0.07885416667,0.0411651358
0.078875,0.04141249135
0.07889583333,0.04164433479
0.07891666667,0.04175144061
0.0789375,0.04190636054
0.07895833333,0.04210195318
0.07897916667,0.04229722172
0.079,0.04250346869
0.07902083333,0.04279173538
0.07904166667,0.04313221946
0.0790625,0.0434371084
0.07908333333,0.04379221797
0.07910416667,0.04412112758
0.079125,0.04447696358
0.07914583333,0.04483075067
0.07916666667,0.04522567615
0.0791875,0.04568468034
0.07920833333,0.04617132619
0.07922916667,0.04676055908
0.07925,0.04727466032
0.07927083333,0.04782339931
0.07929166667,0.04839590937
0.0793125,0.04892170429
0.07933333333,0.04944167659
0.07935416667,0.04998851195
0.079375,0.05048456416
0.07939583333,0.0510003604
0.07941666667,0.05156359076
0.0794375,0.05204378441
0.07945833333,0.05249457806
0.07947916667,0.05301952362
0.0795,0.05355123058
0.07952083333,0.05410404503
0.07954166667,0.05466664582
0.0795625,0.0552140139
0.07958333333,0.05574082211
0.07960416667,0.05625876412
0.079625,0.05674118921
0.07964583333,0.05718346313
0.07966666667,0.05762903765
0.0796875,0.05807327852
0.07970833333,0.05847862363
0.07972916667,0.05887897313
0.07975,0.05927176401
0.07977083333,0.05969271064
0.07979166667,0.06010642275
0.0798125,0.06048158556
0.07983333333,0.06086152419
0.07985416667,0.06127432734
0.079875,0.06165236235
0.07989583333,0.06196079403
0.07991666667,0.06227655709
0.0799375,0.06258223206
0.07995833333,0.06284912676
0.07997916667,0.06316398084
0.08,0.06351784617
0.08002083333,0.06364731491
0.08004166667,0.06382974982
0.0800625,0.06392297149
0.08008333333,0.06400637329
0.08010416667,0.06411164254
0.080125,0.06425708532
0.08014583333,0.06442116946
0.08016666667,0.06450418383
0.0801875,0.06457592547
0.08020833333,0.06470231712
0.08022916667,0.0647938624
0.08025,0.06487871706
0.08027083333,0.06502130628
0.08029166667,0.06520316005
0.0803125,0.06538059562
0.08033333333,0.06560904533
0.08035416667,0.06585025042
0.080375,0.06615776569
0.08039583333,0.06645830721
0.08041666667,0.06675372273
0.0804375,0.06707508117
0.08045833333,0.06733560562
0.08047916667,0.06767783314
0.0805,0.06795708835
0.08052083333,0.06825257838
0.08054166667,0.06856318563
0.0805625,0.06876640022
0.08058333333,0.06908032298
0.08060416667,0.06944143027
0.080625,0.06977556646
0.08064583333,0.07010471821
0.08066666667,0.07047352195
0.0806875,0.07081659883
0.08070833333,0.07114115357
0.08072916667,0.07151927054
0.08075,0.07190746814
0.08077083333,0.07222849131
0.08079166667,0.07256454974
0.0808125,0.07290718704
0.08083333333,0.07326549292
0.08085416667,0.07362986356
0.080875,0.0739749521
0.08089583333,0.07437642664
0.08091666667,0.07489120215
0.0809375,0.07546358556
0.08095833333,0.07608765364
0.08097916667,0.07682158053
0.081,0.07761014253
0.08102083333,0.0784220323
0.08104166667,0.07929444313
0.0810625,0.08017399162
0.08108333333,0.08108863235
0.08110416667,0.08200652152
0.081125,0.0829262957
0.08114583333,0.08391389996
0.08116666667,0.08501773328
0.0811875,0.0860369578
0.08120833333,0.08707288653
0.08122916667,0.08808811009
0.08125,0.08908275515
0.08127083333,0.09014841169
0.08129166667,0.09114034474
0.0813125,0.09216828644
0.08133333333,0.09318694472
0.08135416667,0.0941542387
0.081375,0.09507764876
0.08139583333,0.09612002969
0.08141666667,0.09719979763
0.0814375,0.09819676727
0.08145833333,0.09927348793
0.08147916667,0.1002708226
0.0815,0.1012791768
0.08152083333,0.1023148447
0.08154166667,0.1033227518
0.0815625,0.1043949276
0.08158333333,0.1054523513
0.08160416667,0.1065780297
0.081625,0.1077433005
0.08164583333,0.1088022888
0.08166666667,0.1098084524
0.0816875,0.1108098775
0.08170833333,0.111731641
0.08172916667,0.1126173288
0.08175,0.11349722
0.08177083333,0.114330247
0.08179166667,0.1151471958
0.0818125,0.1159761101
0.08183333333,0.1167372763
0.08185416667,0.117521368
0.081875,0.1182901636
0.08189583333,0.1190421805
0.08191666667,0.1198996082
0.0819375,0.1206625402
0.08195833333,0.1213740483
0.08197916667,0.1220512837
0.082,0.1226819232
0.08202083333,0.1233635917
0.08204166667,0.1239708886
0.0820625,0.1245458052
0.08208333333,0.1250729412
0.08210416667,0.1255920976
0.082125,0.1261627972
0.08214583333,0.1266637295
0.08216666667,0.1272047162
0.0821875,0.1278010756
0.08220833333,0.1282822192
0.08222916667,0.12876831
0.08225,0.1292702705
0.08227083333,0.1297437251
0.08229166667,0.1301396191
0.0823125,0.1304801702
0.08233333333,0.1309308708
0.08235416667,0.1312624067
0.082375,0.1315073818
0.08239583333,0.1318005323
0.08241666667,0.1319722235
0.0824375,0.1321672946
0.08245833333,0.1322980374
0.08247916667,0.1323709488
0.0825,0.132460326
0.08252083333,0.1324574053
0.08254166667,0.1324114799
0.0825625,0.1323361695
0.08258333333,0.1321985424
0.08260416667,0.1319686621
0.082625,0.1317869723
0.08264583333,0.1315738708
0.08266666667,0.131321907
0.0826875,0.1311933696
0.08270833333,0.1310237497
0.08272916667,0.1309273839
0.08275,0.1308190376
0.08277083333,0.1306707114
0.08279166667,0.1304941773
0.0828125,0.1302930862
0.08283333333,0.1301811785
0.08285416667,0.1299976408
0.082875,0.1298002005
0.08289583333,0.1296414584
0.08291666667,0.1293855309
0.0829375,0.12911883
0.08295833333,0.1288404912
0.08297916667,0.1285604984
0.083,0.1283639967
0.08302083333,0.1281655729
0.08304166667,0.128074944
0.0830625,0.1279853284
0.08308333333,0.1278824508
0.08310416667,0.1277807504
0.083125,0.1276412606
0.08314583333,0.1275597215
0.08316666667,0.1274231076
0.0831875,0.1272787601
0.08320833333,0.1271111667
0.08322916667,0.1269184351
0.08325,0.1267268062
0.08327083333,0.126486674
0.08329166667,0.1262837052
0.0833125,0.1259824187
0.08333333333,0.1256383508
0.08335416667,0.1252951026
0.083375,0.1249545515
0.08339583333,0.124639079
0.08341666667,0.1242705211
0.0834375,0.1239019558
0.08345833333,0.1234932616
0.08347916667,0.1230411679
0.0835,0.1226026639
0.08352083333,0.1221389696
0.08354166667,0.1216768697
0.0835625,0.1211629808
0.08358333333,0.120559521
0.08360416667,0.120234251
0.083625,0.1201161742
0.08364583333,0.1198550016
0.08366666667,0.1196995378
0.0836875,0.1193898767
0.08370833333,0.1190299466
0.08372916667,0.1187510341
0.08375,0.1183839738
0.08377083333,0.1180300042
0.08379166667,0.117656298
0.0838125,0.1173417568
0.08383333333,0.1168888286
0.08385416667,0.1163657755
0.083875,0.1157469973
0.08389583333,0.1150231063
0.08391666667,0.114252992
0.0839375,0.1134957448
0.08395833333,0.1127348691
0.08397916667,0.1118746623
0.084,0.1110899746
0.08402083333,0.1102247015
0.08404166667,0.1092848554
0.0840625,0.108364515
0.08408333333,0.1074194014
0.08410416667,0.1065481678
0.084125,0.105580762
0.08414583333,0.1046664938
0.08416666667,0.103695251
0.0841875,0.1026882231
0.08420833333,0.1017707959
0.08422916667,0.1007739827
0.08425,0.09981936961
0.08427083333,0.09886309505
0.08429166667,0.09793006629
0.0843125,0.09696982801
0.08433333333,0.09596407413
0.08435416667,0.09504457563
0.084375,0.09408067167
0.08439583333,0.09314574301
0.08441666667,0.09219653159
0.0844375,0.09124158323
0.08445833333,0.0903813988
0.08447916667,0.08947714418
0.0845,0.08862202615
0.08452083333,0.08772041649
0.08454166667,0.08685155958
0.0845625,0.08605964482
0.08458333333,0.08535250276
0.08460416667,0.08462882042
0.084625,0.08400147408
0.08464583333,0.08387359977
0.08466666667,0.08367322385
0.0846875,0.08333203942
0.08470833333,0.08296728879
0.08472916667,0.08250048757
0.08475,0.08201488853
0.08477083333,0.08144087344
0.08479166667,0.08081591129
0.0848125,0.08016465604
0.08483333333,0.07942244411
0.08485416667,0.07863494009
0.084875,0.07779251039
0.08489583333,0.07688973844
0.08491666667,0.0759966746
0.0849375,0.07508857548
0.08495833333,0.07414840907
0.08497916667,0.073253721
0.085,0.07232863456
0.08502083333,0.07140433788
0.08504166667,0.07045179605
0.0850625,0.06943596154
0.08508333333,0.06837525964
0.08510416667,0.06731665134
0.085125,0.06624750048
0.08514583333,0.06520127505
0.08516666667,0.06419356912
0.0851875,0.06308020651
0.08520833333,0.06198084354
0.08522916667,0.06094262376
0.08525,0.05989427865
0.08527083333,0.05888509005
0.08529166667,0.05786084384
0.0853125,0.05685133114
0.08533333333,0.05588902906
0.08535416667,0.05495731533
0.085375,0.05400648341
0.08539583333,0.05309574306
0.08541666667,0.05222618952
0.0854375,0.05130680278
0.08545833333,0.05042120442
0.08547916667,0.04963219538
0.0855,0.04883783311
0.08552083333,0.04805507511
0.08554166667,0.04724417999
0.0855625,0.04647488892
0.08558333333,0.04580507427
0.08560416667,0.04507831484
0.085625,0.04446384311
0.08564583333,0.04380846396
0.08566666667,0.04319325835
0.0856875,0.04268815741
0.08570833333,0.04205065593
0.08572916667,0.0413909331
0.08575,0.04071203247
0.08577083333,0.03991351649
0.08579166667,0.03911285102
0.0858125,0.03823086247
0.08583333333,0.03733058274
0.08585416667,0.03638133779
0.085875,0.03534502164
0.08589583333,0.03432196751
0.08591666667,0.03325304762
0.0859375,0.03216475993
0.08595833333,0.03104835004
0.08597916667,0.02992224321
0.086,0.02882229909
0.08602083333,0.02775962465
0.08604166667,0.02673338167
0.0860625,0.02568336762
0.08608333333,0.02465806715
0.08610416667,0.02363040671
0.086125,0.02258648351
0.08614583333,0.02162351087
0.08616666667,0.02067825012
0.0861875,0.01975290105
0.08620833333,0.01886315085
0.08622916667,0.01797593199
0.08625,0.01709661633
0.08627083333,0.01622793078
0.08629166667,0.01537083834
0.0863125,0.01451057754
0.08633333333,0.01365420222
0.08635416667,0.01285446715
0.086375,0.01207270753
0.08639583333,0.0112193618
0.08641666667,0.01043489855
0.0864375,0.009684938006
0.08645833333,0.008938564919
0.08647916667,0.0082192095
0.0865,0.007473371923
0.08652083333,0.00675796438
0.08654166667,0.006085768342
0.0865625,0.005432241596
0.08658333333,0.004785099998
0.08660416667,0.004126739688
0.086625,0.003523529973
0.08664583333,0.002934879158
0.08666666667,0.002334238496
0.0866875,0.001744055422
0.08670833333,0.001134386985
0.08672916667,0.0005608550273
0.08675,-2.076732926e-05
0.08677083333,-0.0006500312593
0.08679166667,-0.001304971287
0.0868125,-0.001983874012
0.08683333333,-0.002678100951
0.08685416667,-0.003355180379
0.086875,-0.004041778855
0.08689583333,-0.004703176208
0.08691666667,-0.005347464699
0.0869375,-0.005986137781
0.08695833333,-0.006629905663
0.08697916667,-0.007242104039
0.087,-0.007839735597
0.08702083333,-0.008412750438
0.08704166667,-0.009010542184
0.0870625,-0.009621364065
0.08708333333,-0.01022687741
0.08710416667,-0.01080412418
0.087125,-0.01142087393
0.08714583333,-0.01204879396
0.08716666667,-0.01265542861
0.0871875,-0.01327219047
0.08720833333,-0.01388459187
0.08722916667,-0.01452602446
0.08725,-0.015180571
0.08727083333,-0.01580160297
0.08729166667,-0.01638179645
0.0873125,-0.01697867177
0.08733333333,-0.01754397713
0.08735416667,-0.01805226319
0.087375,-0.01861583255
0.08739583333,-0.01919701695
0.08741666667,-0.01975899003
0.0874375,-0.0203015767
0.08745833333,-0.02083467692
0.08747916667,-0.02136742137
0.0875,-0.02185430191
0.08752083333,-0.02233446017
0.08754166667,-0.0228258539
0.0875625,-0.02328610048
0.08758333333,-0.02373840287
0.08760416667,-0.02417160943
0.087625,-0.02455824614
0.08764583333,-0.02499410883
0.08766666667,-0.02541941218
0.0876875,-0.02580846846
0.08770833333,-0.02621806785
0.08772916667,-0.02660177834
0.08775,-0.02700630575
0.08777083333,-0.02738826908
0.08779166667,-0.02777193859
0.0878125,-0.02814720944
0.08783333333,-0.02858562022
0.08785416667,-0.02898314595
0.087875,-0.02933946624
0.08789583333,-0.02973581292
0.08791666667,-0.03010139056
0.0879375,-0.03050842136
0.08795833333,-0.03091178089
0.08797916667,-0.03131753579
0.088,-0.03170045465
0.08802083333,-0.03199885786
0.08804166667,-0.03228424117
0.0880625,-0.03256751969
0.08808333333,-0.03282497451
0.08810416667,-0.03312824667
0.088125,-0.03343368694
0.08814583333,-0.03373387828
0.08816666667,-0.03403552994
0.0881875,-0.03429542854
0.08820833333,-0.03447275981
0.08822916667,-0.0347339958
0.08825,-0.03502734751
0.08827083333,-0.03529000282
0.08829166667,-0.03560309485
0.0883125,-0.03586912528
0.08833333333,-0.0361677967
0.08835416667,-0.03647233546
0.088375,-0.03679216281
0.08839583333,-0.03716992959
0.08841666667,-0.03744630516
0.0884375,-0.03778685257
0.08845833333,-0.03816889971
0.08847916667,-0.03849332035
0.0885,-0.03884619102
0.08852083333,-0.03921524808
0.08854166667,-0.03953486308
0.0885625,-0.03985894471
0.08858333333,-0.0401866287
0.08860416667,-0.04055676982
0.088625,-0.04095650092
0.08864583333,-0.04133668914
0.08866666667,-0.04169145599
0.0886875,-0.04201709107
0.08870833333,-0.04233783484
0.08872916667,-0.04269310087
0.08875,-0.04299332574
0.08877083333,-0.0433055684
0.08879166667,-0.04360920191
0.0888125,-0.0439173691
0.08883333333,-0.04422197863
0.08885416667,-0.04449170455
0.088875,-0.04473078251
0.08889583333,-0.04501811787
0.08891666667,-0.04529485479
0.0889375,-0.04559703171
0.08895833333,-0.04585509747
0.08897916667,-0.04612471908
0.089,-0.04644275457
0.08902083333,-0.04669691995
0.08904166667,-0.04701564088
0.0890625,-0.04735452309
0.08908333333,-0.04769377783
0.08910416667,-0.04810038209
0.089125,-0.0484864153
0.08914583333,-0.0489278771
0.08916666667,-0.04935019463
0.0891875,-0.04977142811
0.08920833333,-0.05021141842
0.08922916667,-0.05060785636
0.08925,-0.05105988681
0.08927083333,-0.05145745352
0.08929166667,-0.05181230232
0.0893125,-0.0521857366
0.08933333333,-0.05256558955
0.08935416667,-0.05300974473
0.089375,-0.05340028182
0.08939583333,-0.05374867469
0.08941666667,-0.05416718125
0.0894375,-0.05454621091
0.08945833333,-0.05491615832
0.08947916667,-0.05526637658
0.0895,-0.05559959635
0.08952083333,-0.05594853312
0.08954166667,-0.05624531209
0.0895625,-0.05656870827
0.08958333333,-0.05682392791
0.08960416667,-0.05701522157
0.089625,-0.0571952574
0.08964583333,-0.05740651488
0.08966666667,-0.05760397017
0.0896875,-0.05776102841
0.08970833333,-0.05792762712
0.08972916667,-0.05808131769
0.08975,-0.05818752944
0.08977083333,-0.0583248511
0.08979166667,-0.05850378424
0.0898125,-0.05863225088
0.08983333333,-0.05878320709
0.08985416667,-0.05894813687
0.089875,-0.05906696245
0.08989583333,-0.05923765153
0.08991666667,-0.05936504155
0.0899375,-0.05951183662
0.08995833333,-0.05972183496
0.08997916667,-0.0599196367
0.09,-0.06020180508
0.09002083333,-0.06044288725
0.09004166667,-0.06067334488
0.0900625,-0.06090563536
0.09008333333,-0.06113987043
0.09010416667,-0.06135486066
0.090125,-0.06154820696
0.09014583333,-0.0616805926
0.09016666667,-0.06185474992
0.0901875,-0.06203443184
0.09020833333,-0.06221997738
0.09022916667,-0.06244557723
0.09025,-0.06255653501
0.09027083333,-0.06267476082
0.09029166667,-0.06282681227
0.0903125,-0.06291403621
0.09033333333,-0.06299095601
0.09035416667,-0.06308305264
0.090375,-0.06316065788
0.09039583333,-0.06324069202
0.09041666667,-0.0633276403
0.0904375,-0.06339547038
0.09045833333,-0.06355123222
0.09047916667,-0.06375984848
0.0905,-0.06395240873
0.09052083333,-0.06417315453
0.09054166667,-0.06440588832
0.0905625,-0.06458497047
0.09058333333,-0.06477117538
0.09060416667,-0.06498263031
0.090625,-0.06520529091
0.09064583333,-0.06535185874
0.09066666667,-0.06545514613
0.0906875,-0.06563414633
0.09070833333,-0.06581319124
0.09072916667,-0.06599865109
0.09075,-0.06616868079
0.09077083333,-0.06634993106
0.09079166667,-0.06655447185
0.0908125,-0.06675759703
0.09083333333,-0.06697588414
0.09085416667,-0.06716510653
0.090875,-0.06737468392
0.09089583333,-0.06762146205
0.09091666667,-0.06782089919
0.0909375,-0.06811191887
0.09095833333,-0.06842837483
0.09097916667,-0.06884578615
0.091,-0.06938588619
0.09102083333,-0.06999123842
0.09104166667,-0.07071889937
0.0910625,-0.07152339071
0.09108333333,-0.07244087756
0.09110416667,-0.07338602841
0.091125,-0.07429480553
0.09114583333,-0.07530393451
0.09116666667,-0.0763778016
0.0911875,-0.07751549035
0.09120833333,-0.07867307961
