time,data
0,-1.413809958e-08
2.083333333e-05,-7.568599081e-09
4.166666667e-05,-1.222854484e-09
6.25e-05,4.859214364e-09
8.333333333e-05,1.098341151e-08
0.0001041666667,1.734249366e-08
0.000125,2.404301291e-08
0.0001458333333,3.099944479e-08
0.0001666666667,3.795335246e-08
0.0001875,4.487873184e-08
0.0002083333333,5.176474716e-08
0.0002291666667,5.894975175e-08
0.00025,6.659360707e-08
0.0002708333333,7.478896435e-08
0.0002916666667,8.339110735e-08
0.0003125,9.208564222e-08
0.0003333333333,1.007864157e-07
0.0003541666667,1.093795063e-07
0.000375,1.181173062e-07
0.0003958333333,1.270535961e-07
0.0004166666667,1.36216741e-07
0.0004375,1.454347114e-07
0.0004583333333,1.543775596e-07
0.0004791666667,1.629664723e-07
0.0005,1.710716759e-07
0.0005208333333,1.789729538e-07
0.0005416666667,1.867671244e-07
0.0005625,1.946061303e-07
0.0005833333333,2.02403001e-07
0.0006041666667,2.099050533e-07
0.000625,2.169856117e-07
0.0006458333333,2.234307601e-07
0.0006666666667,2.29443998e-07
0.0006875,2.350675317e-07
0.0007083333333,2.404876511e-07
0.0007291666667,2.455706749e-07
0.00075,2.499695597e-07
0.0007708333333,2.534008274e-07
0.0007916666667,2.554750438e-07
0.0008125,2.564369197e-07
0.0008333333333,2.564171098e-07
0.0008541666667,2.558624601e-07
0.000875,2.547793656e-07
0.0008958333333,2.528679204e-07
0.0009166666667,2.498314871e-07
0.0009375,2.452800913e-07
0.0009583333333,2.396019454e-07
0.0009791666667,2.331490094e-07
0.001,2.264921335e-07
0.001020833333,2.196354103e-07
0.001041666667,2.120277287e-07
0.0010625,2.031164001e-07
0.001083333333,1.923434212e-07
0.001104166667,1.800977572e-07
0.001125,1.66840735e-07
0.001145833333,1.532208387e-07
0.001166666667,1.391535562e-07
0.0011875,1.240510272e-07
0.001208333333,1.07273145e-07
0.001229166667,8.85112641e-08
0.00125,6.843853129e-08
0.001270833333,4.785161067e-08
0.001291666667,2.761110984e-08
0.0013125,7.606552721e-09
0.001333333333,-1.278451389e-08
0.001354166667,-3.423616945e-08
0.001375,-5.707254402e-08
0.001395833333,-8.052847988e-08
0.001416666667,-1.039878583e-07
0.0014375,-1.267239327e-07
0.001458333333,-1.491524557e-07
0.001479166667,-1.720378151e-07
0.0015,-1.960759164e-07
0.001520833333,-2.21501395e-07
0.001541666667,-2.474615997e-07
0.0015625,-2.732130611e-07
0.001583333333,-2.979898284e-07
0.001604166667,-3.219523421e-07
0.001625,-3.456356978e-07
0.001645833333,-3.694222812e-07
0.001666666667,-3.933840844e-07
0.0016875,-4.166796259e-07
0.001708333333,-4.387000558e-07
0.001729166667,-4.5876223e-07
0.00175,-4.771804925e-07
0.001770833333,-4.944513421e-07
0.001791666667,-5.112496524e-07
0.0018125,-5.27877603e-07
0.001833333333,-5.439074471e-07
0.001854166667,-5.58933607e-07
0.001875,-5.722238257e-07
0.001895833333,-5.838443826e-07
0.001916666667,-5.940582923e-07
0.0019375,-6.03332694e-07
0.001958333333,-6.12076235e-07
0.001979166667,-6.196938216e-07
0.002,-6.256639153e-07
0.002020833333,-6.287968972e-07
0.002041666667,-6.288705094e-07
0.0020625,-6.261349199e-07
0.002083333333,-6.214071391e-07
0.002104166667,-6.156106451e-07
0.002125,-6.086447684e-07
0.002145833333,-6.000173585e-07
0.002166666667,-5.88682326e-07
0.0021875,-5.742940061e-07
0.002208333333,-5.575357136e-07
0.002229166667,-5.395546623e-07
0.00225,-5.215826491e-07
0.002270833333,-5.034078754e-07
0.002291666667,-4.840183578e-07
0.0023125,-4.617599245e-07
0.002333333333,-4.359821446e-07
0.002354166667,-4.072143156e-07
0.002375,-3.769492878e-07
0.002395833333,-3.463292444e-07
0.002416666667,-3.152112242e-07
0.0024375,-2.823127829e-07
0.002458333333,-2.460933501e-07
0.002479166667,-2.062709399e-07
0.0025,-1.640670746e-07
0.002520833333,-1.215149865e-07
0.002541666667,-8.021336129e-08
0.0025625,-3.988978747e-08
0.002583333333,6.581045153e-10
0.002604166667,4.31695284e-08
0.002625,8.780575911e-08
0.002645833333,1.33482942e-07
0.002666666667,1.78435684e-07
0.0026875,2.216098522e-07
0.002708333333,2.636759575e-07
0.002729166667,3.062368421e-07
0.00275,3.508203861e-07
0.002770833333,3.976462892e-07
0.002791666667,4.452802784e-07
0.0028125,4.920526635e-07
0.002833333333,5.365802167e-07
0.002854166667,5.792226716e-07
0.002875,6.208627497e-07
0.002895833333,6.625308515e-07
0.002916666667,7.040633818e-07
0.0029375,7.44270551e-07
0.002958333333,7.816728953e-07
0.002979166667,8.153317594e-07
0.003,8.455477314e-07
0.003020833333,8.734721746e-07
0.003041666667,9.002821457e-07
0.0030625,9.26637199e-07
0.003083333333,9.519254718e-07
0.003104166667,9.753028962e-07
0.003125,9.955674614e-07
0.003145833333,1.012706207e-06
0.003166666667,1.02710294e-06
0.0031875,1.039856329e-06
0.003208333333,1.051431354e-06
0.003229166667,1.061326202e-06
0.00325,1.068210508e-06
0.003270833333,1.070295298e-06
0.003291666667,1.066895265e-06
0.0033125,1.058489488e-06
0.003333333333,1.046607167e-06
0.003354166667,1.032966111e-06
0.003375,1.017509589e-06
0.003395833333,9.995740129e-07
0.003416666667,9.770348015e-07
0.0034375,9.49559535e-07
0.003458333333,9.179410654e-07
0.003479166667,8.845321986e-07
0.0035,8.513808325e-07
0.003520833333,8.183219506e-07
0.003541666667,7.836010809e-07
0.0035625,7.44335523e-07
0.003583333333,6.992481758e-07
0.003604166667,6.493916658e-07
0.003625,5.97103508e-07
0.003645833333,5.447717513e-07
0.003666666667,4.918578611e-07
0.0036875,4.365509199e-07
0.003708333333,3.758779314e-07
0.003729166667,3.096078274e-07
0.00375,2.395722163e-07
0.003770833333,1.694854319e-07
0.003791666667,1.018856963e-07
0.0038125,3.650778524e-08
0.003833333333,-2.883103534e-08
0.003854166667,-9.701999915e-08
0.003875,-1.68357488e-07
0.003895833333,-2.409991851e-07
0.003916666667,-3.120281633e-07
0.0039375,-3.795071848e-07
0.003958333333,-4.449612447e-07
0.003979166667,-5.105818559e-07
0.004,-5.796107416e-07
0.004020833333,-6.516482358e-07
0.004041666667,-7.249419696e-07
0.0040625,-7.961461961e-07
0.004083333333,-8.633516018e-07
0.004104166667,-9.271136605e-07
0.004125,-9.889176908e-07
0.004145833333,-1.050672495e-06
0.004166666667,-1.111839993e-06
0.0041875,-1.170570613e-06
0.004208333333,-1.224365178e-06
0.004229166667,-1.271603765e-06
0.00425,-1.31332115e-06
0.004270833333,-1.350876346e-06
0.004291666667,-1.387120733e-06
0.0043125,-1.422040555e-06
0.004333333333,-1.455582151e-06
0.004354166667,-1.485378107e-06
0.004375,-1.510230732e-06
0.004395833333,-1.529936867e-06
0.004416666667,-1.545250939e-06
0.0044375,-1.558394047e-06
0.004458333333,-1.569450546e-06
0.004479166667,-1.578121669e-06
0.0045,-1.581691095e-06
0.004520833333,-1.57748832e-06
0.004541666667,-1.564928994e-06
0.0045625,-1.544151587e-06
0.004583333333,-1.519002353e-06
0.004604166667,-1.490584737e-06
0.004625,-1.460312546e-06
0.004645833333,-1.425550863e-06
0.004666666667,-1.384016173e-06
0.0046875,-1.334855824e-06
0.004708333333,-1.279445883e-06
0.004729166667,-1.222218316e-06
0.00475,-1.165417302e-06
0.004770833333,-1.109614914e-06
0.004791666667,-1.05113395e-06
0.0048125,-9.857860732e-07
0.004833333333,-9.120155937e-07
0.004854166667,-8.307379176e-07
0.004875,-7.472355037e-07
0.004895833333,-6.63305741e-07
0.004916666667,-5.799805649e-07
0.0049375,-4.92474669e-07
0.004958333333,-3.975876268e-07
0.004979166667,-2.942794595e-07
0.005,-1.856637368e-07
0.005020833333,-7.811360092e-08
0.005041666667,2.549268174e-08
0.0050625,1.244474674e-07
0.005083333333,2.233415728e-07
0.005104166667,3.259177106e-07
0.005125,4.326585383e-07
0.005145833333,5.413461963e-07
0.005166666667,6.460322766e-07
0.0051875,7.458196478e-07
0.005208333333,8.407128007e-07
0.005229166667,9.36469462e-07
0.00525,1.035993137e-06
0.005270833333,1.140093104e-06
0.005291666667,1.2454733e-06
0.0053125,1.346888439e-06
0.005333333333,1.442362986e-06
0.005354166667,1.531355224e-06
0.005375,1.617616476e-06
0.005395833333,1.702720738e-06
0.005416666667,1.786662892e-06
0.0054375,1.866841899e-06
0.005458333333,1.938543619e-06
0.005479166667,2.001359235e-06
0.0055,2.054044671e-06
0.005520833333,2.10168082e-06
0.005541666667,2.145464805e-06
0.0055625,2.187976861e-06
0.005583333333,2.227759751e-06
0.005604166667,2.261830332e-06
0.005625,2.289218173e-06
0.005645833333,2.307791647e-06
0.005666666667,2.320747626e-06
0.0056875,2.329117251e-06
0.005708333333,2.334745432e-06
0.005729166667,2.336876832e-06
0.00575,2.33095966e-06
0.005770833333,2.315229267e-06
0.005791666667,2.28550789e-06
0.0058125,2.245644282e-06
0.005833333333,2.197314871e-06
0.005854166667,2.145566668e-06
0.005875,2.090490625e-06
0.005895833333,2.029363031e-06
0.005916666667,1.95949292e-06
0.0059375,1.877742648e-06
0.005958333333,1.788432428e-06
0.005979166667,1.695175683e-06
0.006,1.6035616e-06
0.006020833333,1.513465463e-06
0.006041666667,1.419593218e-06
0.0060625,1.317773581e-06
0.006083333333,1.202407702e-06
0.006104166667,1.078832838e-06
0.006125,9.499274825e-07
0.006145833333,8.225890724e-07
0.006166666667,6.953242178e-07
0.0061875,5.631997055e-07
0.006208333333,4.217415324e-07
0.006229166667,2.678116289e-07
0.00625,1.083615615e-07
0.006270833333,-5.074173259e-08
0.006291666667,-2.025483781e-07
0.0063125,-3.477505857e-07
0.006333333333,-4.923164738e-07
0.006354166667,-6.402269719e-07
0.006375,-7.950741292e-07
0.006395833333,-9.497213114e-07
0.006416666667,-1.100642294e-06
0.0064375,-1.241736641e-06
0.006458333333,-1.377144031e-06
0.006479166667,-1.511985602e-06
0.0065,-1.651587013e-06
0.006520833333,-1.797623213e-06
0.006541666667,-1.943324378e-06
0.0065625,-2.084618473e-06
0.006583333333,-2.215084805e-06
0.006604166667,-2.337146725e-06
0.006625,-2.454209152e-06
0.006645833333,-2.568460332e-06
0.006666666667,-2.682027798e-06
0.0066875,-2.78714856e-06
0.006708333333,-2.882684385e-06
0.006729166667,-2.962099416e-06
0.00675,-3.029355184e-06
0.006770833333,-3.087330697e-06
0.006791666667,-3.14021031e-06
0.0068125,-3.191294809e-06
0.006833333333,-3.236679049e-06
0.006854166667,-3.275460813e-06
0.006875,-3.302139021e-06
0.006895833333,-3.317911023e-06
0.006916666667,-3.324444833e-06
0.0069375,-3.324483259e-06
0.006958333333,-3.321720214e-06
0.006979166667,-3.311460659e-06
0.007,-3.292707561e-06
0.007020833333,-3.256238642e-06
0.007041666667,-3.203350389e-06
0.0070625,-3.13364194e-06
0.007083333333,-3.053829232e-06
0.007104166667,-2.969319667e-06
0.007125,-2.879027534e-06
0.007145833333,-2.782324373e-06
0.007166666667,-2.6705045e-06
0.0071875,-2.544616336e-06
0.007208333333,-2.406549356e-06
0.007229166667,-2.264020623e-06
0.00725,-2.125040965e-06
0.007270833333,-1.98613634e-06
0.007291666667,-1.84542364e-06
0.0073125,-1.68957331e-06
0.007333333333,-1.519013949e-06
0.007354166667,-1.334106287e-06
0.007375,-1.144568387e-06
0.007395833333,-9.572754607e-07
0.007416666667,-7.697460092e-07
0.0074375,-5.779535854e-07
0.007458333333,-3.706098255e-07
0.007479166667,-1.49186306e-07
0.0075,8.169029542e-08
0.007520833333,3.102828714e-07
0.007541666667,5.276985462e-07
0.0075625,7.372275377e-07
0.007583333333,9.422058724e-07
0.007604166667,1.155493123e-06
0.007625,1.373758209e-06
0.007645833333,1.59520323e-06
0.007666666667,1.808040224e-06
0.0076875,2.008191359e-06
0.007708333333,2.199767778e-06
0.007729166667,2.388445864e-06
0.00775,2.585613856e-06
0.007770833333,2.788039183e-06
0.007791666667,2.992501777e-06
0.0078125,3.1882239e-06
0.007833333333,3.369281785e-06
0.007854166667,3.539047157e-06
0.007875,3.698627324e-06
0.007895833333,3.857902357e-06
0.007916666667,4.010921202e-06
0.0079375,4.157092008e-06
0.007958333333,4.285827799e-06
0.007979166667,4.394879397e-06
0.008,4.486137186e-06
0.008020833333,4.563032235e-06
0.008041666667,4.635067853e-06
0.0080625,4.700716545e-06
0.008083333333,4.761925084e-06
0.008104166667,4.811207873e-06
0.008125,4.84531347e-06
0.008145833333,4.864658422e-06
0.008166666667,4.86872932e-06
0.0081875,4.867271855e-06
0.008208333333,4.856588021e-06
0.008229166667,4.840917427e-06
0.00825,4.808952326e-06
0.008270833333,4.757012448e-06
0.008291666667,4.681115115e-06
0.0083125,4.582285328e-06
0.008333333333,4.471542979e-06
0.008354166667,4.350555628e-06
0.008375,4.225804787e-06
0.008395833333,4.088743935e-06
0.008416666667,3.934422693e-06
0.0084375,3.760833806e-06
0.008458333333,3.569303317e-06
0.008479166667,3.37509573e-06
0.0085,3.179750593e-06
0.008520833333,2.990302846e-06
0.008541666667,2.792752639e-06
0.0085625,2.580210548e-06
0.008583333333,2.345831263e-06
0.008604166667,2.093055855e-06
0.008625,1.835552553e-06
0.008645833333,1.577214675e-06
0.008666666667,1.322694402e-06
0.0086875,1.058502221e-06
0.008708333333,7.777095448e-07
0.008729166667,4.774340141e-07
0.00875,1.643118281e-07
0.008770833333,-1.429591237e-07
0.008791666667,-4.408664722e-07
0.0088125,-7.225103218e-07
0.008833333333,-1.00455361e-06
0.008854166667,-1.291337298e-06
0.008875,-1.588151235e-06
0.008895833333,-1.887004601e-06
0.008916666667,-2.173866051e-06
0.0089375,-2.447260385e-06
0.008958333333,-2.705190809e-06
0.008979166667,-2.964171244e-06
0.009,-3.229521553e-06
0.009020833333,-3.503833113e-06
0.009041666667,-3.779980716e-06
0.0090625,-4.042178261e-06
0.009083333333,-4.289877779e-06
0.009104166667,-4.516651643e-06
0.009125,-4.737104064e-06
0.009145833333,-4.950527455e-06
0.009166666667,-5.1604502e-06
0.0091875,-5.358284852e-06
0.009208333333,-5.533441254e-06
0.009229166667,-5.684985354e-06
0.00925,-5.809672075e-06
0.009270833333,-5.920669082e-06
0.009291666667,-6.020769433e-06
0.0093125,-6.115982615e-06
0.009333333333,-6.203360044e-06
0.009354166667,-6.273907729e-06
0.009375,-6.32771571e-06
0.009395833333,-6.356708127e-06
0.009416666667,-6.373113592e-06
0.0094375,-6.375225439e-06
0.009458333333,-6.372049484e-06
0.009479166667,-6.357405255e-06
0.0095,-6.323209163e-06
0.009520833333,-6.263563591e-06
0.009541666667,-6.169428161e-06
0.0095625,-6.051254331e-06
0.009583333333,-5.912452707e-06
0.009604166667,-5.765819424e-06
0.009625,-5.611099823e-06
0.009645833333,-5.440294444e-06
0.009666666667,-5.249350124e-06
0.0096875,-5.027880889e-06
0.009708333333,-4.790859748e-06
0.009729166667,-4.542735496e-06
0.00975,-4.300948149e-06
0.009770833333,-4.060714673e-06
0.009791666667,-3.812668183e-06
0.0098125,-3.544412039e-06
0.009833333333,-3.245243988e-06
0.009854166667,-2.927400828e-06
0.009875,-2.598172841e-06
0.009895833333,-2.274032113e-06
0.009916666667,-1.950507794e-06
0.0099375,-1.616022701e-06
0.009958333333,-1.260941872e-06
0.009979166667,-8.762203834e-07
0.01,-4.72891486e-07
0.01002083333,-6.117220153e-08
0.01004166667,3.176465668e-07
0.0100625,6.68897826e-07
0.01008333333,1.010800588e-06
0.01010416667,1.363008437e-06
0.010125,1.735765295e-06
0.01014583333,2.119533065e-06
0.01016666667,2.495367426e-06
0.0101875,2.846952384e-06
0.01020833333,3.178600309e-06
0.01022916667,3.505249651e-06
0.01025,3.838983048e-06
0.01027083333,4.190614163e-06
0.01029166667,4.545940556e-06
0.0103125,4.896422979e-06
0.01033333333,5.22137816e-06
0.01035416667,5.525557754e-06
0.010375,5.807826255e-06
0.01039583333,6.079396371e-06
0.01041666667,6.339415904e-06
0.0104375,6.580130503e-06
0.01045833333,6.804281384e-06
0.01047916667,7.003091014e-06
0.0105,7.182142326e-06
0.01052083333,7.34601872e-06
0.01054166667,7.495867521e-06
0.0105625,7.634143003e-06
0.01058333333,7.751154953e-06
0.01060416667,7.84738495e-06
0.010625,7.915642527e-06
0.01064583333,7.968795217e-06
0.01066666667,8.002094546e-06
0.0106875,8.02791601e-06
0.01070833333,8.040507055e-06
0.01072916667,8.037040061e-06
0.01075,8.0087475e-06
0.01077083333,7.942233424e-06
0.01079166667,7.84439635e-06
0.0108125,7.714377716e-06
0.01083333333,7.56842519e-06
0.01085416667,7.416194421e-06
0.010875,7.249884675e-06
0.01089583333,7.067930255e-06
0.01091666667,6.840795777e-06
0.0109375,6.581644357e-06
0.01095833333,6.286863481e-06
0.01097916667,5.993710147e-06
0.011,5.710084679e-06
0.01102083333,5.438559128e-06
0.01104166667,5.170543318e-06
0.0110625,4.866698418e-06
0.01108333333,4.526065823e-06
0.01110416667,4.147303571e-06
0.011125,3.751477834e-06
0.01114583333,3.362483312e-06
0.01116666667,2.97974907e-06
0.0111875,2.601075266e-06
0.01120833333,2.189074166e-06
0.01122916667,1.748076897e-06
0.01125,1.276085413e-06
0.01127083333,8.028244451e-07
0.01129166667,3.445722712e-07
0.0113125,-8.760019199e-08
0.01133333333,-5.054430972e-07
0.01135416667,-9.288595493e-07
0.011375,-1.3618926e-06
0.01139583333,-1.804304475e-06
0.01141666667,-2.240597041e-06
0.0114375,-2.660982091e-06
0.01145833333,-3.070377261e-06
0.01147916667,-3.467299621e-06
0.0115,-3.878276857e-06
0.01152083333,-4.287240245e-06
0.01154166667,-4.700420959e-06
0.0115625,-5.095294e-06
0.01158333333,-5.46910087e-06
0.01160416667,-5.829157089e-06
0.011625,-6.170997494e-06
0.01164583333,-6.510800176e-06
0.01166666667,-6.840702099e-06
0.0116875,-7.148972145e-06
0.01170833333,-7.427363016e-06
0.01172916667,-7.665686098e-06
0.01175,-7.872231436e-06
0.01177083333,-8.053722013e-06
0.01179166667,-8.229601917e-06
0.0118125,-8.389722097e-06
0.01183333333,-8.546984645e-06
0.01185416667,-8.679407983e-06
0.011875,-8.782869372e-06
0.01189583333,-8.864179108e-06
0.01191666667,-8.913469173e-06
0.0119375,-8.949605217e-06
0.01195833333,-8.973815966e-06
0.01197916667,-8.981879546e-06
0.012,-8.970800081e-06
0.01202083333,-8.912094017e-06
0.01204166667,-8.815388355e-06
0.0120625,-8.670542229e-06
0.01208333333,-8.507363418e-06
0.01210416667,-8.318166692e-06
0.012125,-8.120448001e-06
0.01214583333,-7.915141396e-06
0.01216666667,-7.687007383e-06
0.0121875,-7.422991985e-06
0.01220833333,-7.130322956e-06
0.01222916667,-6.819385362e-06
0.01225,-6.509426839e-06
0.01227083333,-6.196207323e-06
0.01229166667,-5.86961778e-06
0.0123125,-5.517007139e-06
0.01233333333,-5.141416295e-06
0.01235416667,-4.723339771e-06
0.012375,-4.294751761e-06
0.01239583333,-3.862665835e-06
0.01241666667,-3.434186738e-06
0.0124375,-2.987477274e-06
0.01245833333,-2.523786634e-06
0.01247916667,-2.032275006e-06
0.0125,-1.523473998e-06
0.01252083333,-1.019562205e-06
0.01254166667,-5.279493394e-07
0.0125625,-4.212979832e-08
0.01258333333,4.372085414e-07
0.01260416667,9.287575153e-07
0.012625,1.425147389e-06
0.01264583333,1.917858299e-06
0.01266666667,2.387768745e-06
0.0126875,2.846071311e-06
0.01270833333,3.289532515e-06
0.01272916667,3.740499096e-06
0.01275,4.197924682e-06
0.01277083333,4.673613148e-06
0.01279166667,5.125664302e-06
0.0128125,5.559886176e-06
0.01283333333,5.968302958e-06
0.01285416667,6.356371159e-06
0.012875,6.744236543e-06
0.01289583333,7.128083325e-06
0.01291666667,7.490182725e-06
0.0129375,7.820617611e-06
0.01295833333,8.109905139e-06
0.01297916667,8.362027074e-06
0.013,8.58387466e-06
0.01302083333,8.80737025e-06
0.01304166667,9.012949704e-06
0.0130625,9.211579709e-06
0.01308333333,9.374617548e-06
0.01310416667,9.492065146e-06
0.013125,9.585232874e-06
0.01314583333,9.654567293e-06
0.01316666667,9.710165614e-06
0.0131875,9.768014024e-06
0.01320833333,9.802896784e-06
0.01322916667,9.804659385e-06
0.01325,9.772673366e-06
0.01327083333,9.680368748e-06
0.01329166667,9.544064596e-06
0.0133125,9.411640349e-06
0.01333333333,9.251123629e-06
0.01335416667,9.080393284e-06
0.013375,8.884240742e-06
0.01339583333,8.63740479e-06
0.01341666667,8.347573385e-06
0.0134375,8.010447345e-06
0.01345833333,7.646257473e-06
0.01347916667,7.311874469e-06
0.0135,6.984114407e-06
0.01352083333,6.671022675e-06
0.01354166667,6.333838428e-06
0.0135625,5.961557235e-06
0.01358333333,5.526520908e-06
0.01360416667,5.059383966e-06
0.013625,4.575052571e-06
0.01364583333,4.109194833e-06
0.01366666667,3.657533398e-06
0.0136875,3.203552751e-06
0.01370833333,2.714373977e-06
0.01372916667,2.186693109e-06
0.01375,1.609207288e-06
0.01377083333,1.010647452e-06
0.01379166667,4.385501029e-07
0.0138125,-9.813081192e-08
0.01383333333,-5.90264051e-07
0.01385416667,-1.061887588e-06
0.013875,-1.562615239e-06
0.01389583333,-2.061266514e-06
0.01391666667,-2.578957492e-06
0.0139375,-3.100892172e-06
0.01395833333,-3.609362011e-06
0.01397916667,-4.112425358e-06
0.014,-4.601011824e-06
0.01402083333,-5.058962415e-06
0.01404166667,-5.503944976e-06
0.0140625,-5.929174222e-06
0.01408333333,-6.344943813e-06
0.01410416667,-6.759217285e-06
0.014125,-7.20146636e-06
0.01414583333,-7.643739991e-06
0.01416666667,-8.049449207e-06
0.0141875,-8.393881217e-06
0.01420833333,-8.643496585e-06
0.01422916667,-8.828587852e-06
0.01425,-9.017696357e-06
0.01427083333,-9.213897101e-06
0.01429166667,-9.468261851e-06
0.0143125,-9.731750652e-06
0.01433333333,-9.93003141e-06
0.01435416667,-1.002133467e-05
0.014375,-1.000363136e-05
0.01439583333,-9.956373106e-06
0.01441666667,-9.955578207e-06
0.0144375,-1.000055636e-05
0.01445833333,-1.011857057e-05
0.01447916667,-1.020207037e-05
0.0145,-1.020590571e-05
0.01452083333,-1.006310958e-05
0.01454166667,-9.807663446e-06
0.0145625,-9.502651665e-06
0.01458333333,-9.220942047e-06
0.01460416667,-8.985755812e-06
0.014625,-8.812048691e-06
0.01464583333,-8.61382432e-06
0.01466666667,-8.370197065e-06
0.0146875,-8.022383554e-06
0.01470833333,-7.591779649e-06
0.01472916667,-7.126879609e-06
0.01475,-6.677585134e-06
0.01477083333,-6.270154699e-06
0.01479166667,-5.900489668e-06
0.0148125,-5.543481166e-06
0.01483333333,-5.142564078e-06
0.01485416667,-4.634564448e-06
0.014875,-4.02793421e-06
0.01489583333,-3.411650368e-06
0.01491666667,-2.801151595e-06
0.0149375,-2.256974767e-06
0.01495833333,-1.797228947e-06
0.01497916667,-1.354129836e-06
0.015,-9.006078017e-07
0.01502083333,-3.477577195e-07
0.01504166667,2.844074061e-07
0.0150625,9.709981441e-07
0.01508333333,1.673580641e-06
0.01510416667,2.355547622e-06
0.015125,2.941394769e-06
0.01514583333,3.457125558e-06
0.01516666667,3.903881861e-06
0.0151875,4.3445134e-06
0.01520833333,4.792885193e-06
0.01522916667,5.283970495e-06
0.01525,5.799521205e-06
0.01527083333,6.349812793e-06
0.01529166667,6.874690825e-06
0.0153125,7.339054719e-06
0.01533333333,7.751349585e-06
0.01535416667,8.149825589e-06
0.015375,8.505262485e-06
0.01539583333,8.958885701e-06
0.01541666667,9.425797543e-06
0.0154375,9.864309504e-06
0.01545833333,1.021524258e-05
0.01547916667,1.042640361e-05
0.0155,1.052169591e-05
0.01552083333,1.054373206e-05
0.01554166667,1.06112484e-05
0.0155625,1.074426564e-05
0.01558333333,1.094330946e-05
0.01560416667,1.115847135e-05
0.015625,1.127849191e-05
0.01564583333,1.13410033e-05
0.01566666667,1.130513374e-05
0.0156875,1.122886533e-05
0.01570833333,1.115999657e-05
0.01572916667,1.111456822e-05
0.01575,1.101898761e-05
0.01577083333,1.086338216e-05
0.01579166667,1.062238789e-05
0.0158125,1.029710802e-05
0.01583333333,9.989149476e-06
0.01585416667,9.685439181e-06
0.015875,9.418272384e-06
0.01589583333,9.154787222e-06
0.01591666667,8.806363439e-06
0.0159375,8.415951925e-06
0.01595833333,7.907363397e-06
0.01597916667,7.411652405e-06
0.016,6.909548574e-06
0.01602083333,6.452373327e-06
0.01604166667,5.995653282e-06
0.0160625,5.540540769e-06
0.01608333333,5.00810529e-06
0.01610416667,4.375828667e-06
0.016125,3.735500741e-06
0.01614583333,3.096884711e-06
0.01616666667,2.535266731e-06
0.0161875,1.994283821e-06
0.01620833333,1.464983598e-06
0.01622916667,9.17741545e-07
0.01625,2.635682108e-07
0.01627083333,-4.471527859e-07
0.01629166667,-1.23168536e-06
0.0163125,-1.971817255e-06
0.01633333333,-2.65080962e-06
0.01635416667,-3.223573913e-06
0.016375,-3.739168051e-06
0.01639583333,-4.2505294e-06
0.01641666667,-4.748853826e-06
0.0164375,-5.303057151e-06
0.01645833333,-5.887880889e-06
0.01647916667,-6.561539976e-06
0.0165,-7.170600384e-06
0.01652083333,-7.702819858e-06
0.01654166667,-8.172335583e-06
0.0165625,-8.557792171e-06
0.01658333333,-8.986546163e-06
0.01660416667,-9.362207493e-06
0.016625,-9.871219845e-06
0.01664583333,-1.035265632e-05
0.01666666667,-1.082789277e-05
0.0166875,-1.120315846e-05
0.01670833333,-1.142978545e-05
0.01672916667,-1.159833027e-05
0.01675,-1.167671235e-05
0.01677083333,-1.177132799e-05
0.01679166667,-1.196607627e-05
0.0168125,-1.220494687e-05
0.01683333333,-1.240686197e-05
0.01685416667,-1.253631217e-05
0.016875,-1.251212871e-05
0.01689583333,-1.233425883e-05
0.01691666667,-1.215104021e-05
0.0169375,-1.197537404e-05
0.01695833333,-1.195341065e-05
0.01697916667,-1.199504368e-05
0.017,-1.206804063e-05
0.01702083333,-1.198833525e-05
0.01704166667,-1.171567692e-05
0.0170625,-1.129605062e-05
0.01708333333,-1.073108342e-05
0.01710416667,-1.021546268e-05
0.017125,-9.762214177e-06
0.01714583333,-9.404052435e-06
0.01716666667,-9.084133126e-06
0.0171875,-8.663494555e-06
0.01720833333,-8.17930686e-06
0.01722916667,-7.571939477e-06
0.01725,-6.960585324e-06
0.01727083333,-6.364675755e-06
0.01729166667,-5.844347925e-06
0.0173125,-5.374823104e-06
0.01733333333,-4.899864507e-06
0.01735416667,-4.36115397e-06
0.017375,-3.688647894e-06
0.01739583333,-2.91173501e-06
0.01741666667,-2.02689489e-06
0.0174375,-1.112135578e-06
0.01745833333,-2.999441335e-07
0.01747916667,4.187665184e-07
0.0175,1.017469344e-06
0.01752083333,1.465304308e-06
0.01754166667,1.979401077e-06
0.0175625,2.634820703e-06
0.01758333333,3.401061349e-06
0.01760416667,4.259953585e-06
0.017625,5.162483376e-06
0.01764583333,5.880775461e-06
0.01766666667,6.467912499e-06
0.0176875,6.96549796e-06
0.01770833333,7.478602129e-06
0.01772916667,8.063355381e-06
0.01775,8.745700143e-06
0.01777083333,9.457857232e-06
0.01779166667,1.002237696e-05
0.0178125,1.055007579e-05
0.01783333333,1.091553622e-05
0.01785416667,1.131625686e-05
0.017875,1.168030121e-05
0.01789583333,1.213236192e-05
0.01791666667,1.260681256e-05
0.0179375,1.30669614e-05
0.01795833333,1.351304127e-05
0.01797916667,1.387362317e-05
0.018,1.413556402e-05
0.01802083333,1.42573399e-05
0.01804166667,1.422860169e-05
0.0180625,1.425031405e-05
0.01808333333,1.418971442e-05
0.01810416667,1.422466357e-05
0.018125,1.426491872e-05
0.01814583333,1.436139337e-05
0.01816666667,1.446175065e-05
0.0181875,1.444143345e-05
0.01820833333,1.432129375e-05
0.01822916667,1.412924576e-05
0.01825,1.390691887e-05
0.01827083333,1.3596793e-05
0.01829166667,1.334511308e-05
0.0183125,1.299586529e-05
0.01833333333,1.264902312e-05
0.01835416667,1.23203381e-05
0.018375,1.182235519e-05
0.01839583333,1.134534341e-05
0.01841666667,1.077997149e-05
0.0184375,1.014743793e-05
0.01845833333,9.522120308e-06
0.01847916667,8.929190699e-06
0.0185,8.469852219e-06
0.01852083333,7.979208021e-06
0.01854166667,7.471951903e-06
0.0185625,6.754335118e-06
0.01858333333,6.022024991e-06
0.01860416667,5.187678653e-06
0.018625,4.324642305e-06
0.01864583333,3.628616241e-06
0.01866666667,2.962678991e-06
0.0186875,2.373063353e-06
0.01870833333,1.667492484e-06
0.01872916667,9.241142607e-07
0.01875,3.60962531e-08
0.01877083333,-8.482052749e-07
0.01879166667,-1.717202395e-06
0.0188125,-2.598013907e-06
0.01883333333,-3.286999345e-06
0.01885416667,-4.020443157e-06
0.018875,-4.676302524e-06
0.01889583333,-5.333033641e-06
0.01891666667,-6.048558589e-06
0.0189375,-6.722541912e-06
0.01895833333,-7.477809959e-06
0.01897916667,-8.211060049e-06
0.019,-8.913776583e-06
0.01902083333,-9.469681572e-06
0.01904166667,-1.002411682e-05
0.0190625,-1.051896379e-05
0.01908333333,-1.101779162e-05
0.01910416667,-1.15931889e-05
0.019125,-1.222186711e-05
0.01914583333,-1.284906557e-05
0.01916666667,-1.332591819e-05
0.0191875,-1.369226902e-05
0.01920833333,-1.392552895e-05
0.01922916667,-1.397997858e-05
0.01925,-1.422147943e-05
0.01927083333,-1.449074352e-05
0.01929166667,-1.486030033e-05
0.0193125,-1.526325832e-05
0.01933333333,-1.545798841e-05
0.01935416667,-1.543978578e-05
0.019375,-1.526089545e-05
0.01939583333,-1.49933976e-05
0.01941666667,-1.481752679e-05
0.0194375,-1.483170763e-05
0.01945833333,-1.497540961e-05
0.01947916667,-1.511640312e-05
0.0195,-1.510898528e-05
0.01952083333,-1.480267383e-05
0.01954166667,-1.435926788e-05
0.0195625,-1.374905423e-05
0.01958333333,-1.322395747e-05
0.01960416667,-1.278862783e-05
0.019625,-1.2478602e-05
0.01964583333,-1.219039223e-05
0.01966666667,-1.17723539e-05
0.0196875,-1.133075602e-05
0.01970833333,-1.062964111e-05
0.01972916667,-9.86919531e-06
0.01975,-9.151323866e-06
0.01977083333,-8.428331057e-06
0.01979166667,-8.021913345e-06
0.0198125,-7.593635928e-06
0.01983333333,-7.136912245e-06
0.01985416667,-6.515938367e-06
0.019875,-5.574855095e-06
0.01989583333,-4.401341357e-06
0.01991666667,-3.200020728e-06
0.0199375,-2.125372703e-06
0.01995833333,-1.337574304e-06
0.01997916667,-9.988774536e-07
0.02,-7.491915994e-07
0.02002083333,-2.878506962e-07
0.02004166667,3.943491151e-07
0.0200625,1.379493028e-06
0.02008333333,2.461365966e-06
0.02010416667,3.471805258e-06
0.020125,4.216416983e-06
0.02014583333,4.874297701e-06
0.02016666667,5.318337571e-06
0.0201875,6.026351002e-06
0.02020833333,6.926156857e-06
0.02022916667,7.904652193e-06
0.02025,8.922891539e-06
0.02027083333,9.708791367e-06
0.02029166667,1.015764974e-05
0.0203125,1.04813198e-05
0.02033333333,1.063747732e-05
0.02035416667,1.101297312e-05
0.020375,1.151232937e-05
0.02039583333,1.227985103e-05
0.02041666667,1.288979092e-05
0.0204375,1.358703867e-05
0.02045833333,1.404173781e-05
0.02047916667,1.425736536e-05
0.0205,1.430266366e-05
0.02052083333,1.434340811e-05
0.02054166667,1.443501242e-05
0.0205625,1.465493096e-05
0.02058333333,1.493643504e-05
0.02060416667,1.514192536e-05
0.020625,1.526727283e-05
0.02064583333,1.52499133e-05
0.02066666667,1.488461294e-05
0.0206875,1.476205671e-05
0.02070833333,1.449183401e-05
0.02072916667,1.451734988e-05
0.02075,1.451921889e-05
0.02077083333,1.445189992e-05
0.02079166667,1.41567798e-05
0.0208125,1.378525485e-05
0.02083333333,1.330090345e-05
0.02085416667,1.293424975e-05
0.020875,1.257586337e-05
0.02089583333,1.233768307e-05
0.02091666667,1.197514939e-05
0.0209375,1.168243125e-05
0.02095833333,1.121749574e-05
0.02097916667,1.065081051e-05
0.021,9.805805348e-06
0.02102083333,9.059420336e-06
0.02104166667,8.125784916e-06
0.0210625,7.491476026e-06
0.02108333333,6.618966381e-06
0.02110416667,5.863385013e-06
0.021125,5.041127224e-06
0.02114583333,4.17694946e-06
0.02116666667,3.180547992e-06
0.0211875,2.059638973e-06
0.02120833333,1.012267262e-06
0.02122916667,2.534144414e-07
0.02125,-4.501647481e-07
0.02127083333,-7.532100881e-07
0.02129166667,-1.247775913e-06
0.0213125,-1.750472848e-06
0.02133333333,-2.561737347e-06
0.02135416667,-3.297112016e-06
0.021375,-4.260120477e-06
0.02139583333,-4.983622603e-06
0.02141666667,-5.883719496e-06
0.0214375,-6.483383004e-06
0.02145833333,-7.213099707e-06
0.02147916667,-7.920890312e-06
0.0215,-8.701699699e-06
0.02152083333,-9.352643247e-06
0.02154166667,-1.016285933e-05
0.0215625,-1.081869414e-05
0.02158333333,-1.177308695e-05
0.02160416667,-1.257379608e-05
0.021625,-1.35783157e-05
0.02164583333,-1.416805662e-05
0.02166666667,-1.492540378e-05
0.0216875,-1.514170708e-05
0.02170833333,-1.552419053e-05
0.02172916667,-1.557913492e-05
0.02175,-1.583976155e-05
0.02177083333,-1.585071368e-05
0.02179166667,-1.581010656e-05
0.0218125,-1.540976155e-05
0.02183333333,-1.526090455e-05
0.02185416667,-1.478346985e-05
0.021875,-1.481943218e-05
0.02189583333,-1.467845323e-05
0.02191666667,-1.489482565e-05
0.0219375,-1.519146281e-05
0.02195833333,-1.552741196e-05
0.02197916667,-1.568989865e-05
0.022,-1.614520079e-05
0.02202083333,-1.607609556e-05
0.02204166667,-1.62186152e-05
0.0220625,-1.607234117e-05
0.02208333333,-1.597656774e-05
0.02210416667,-1.572082147e-05
0.022125,-1.578803494e-05
0.02214583333,-1.514173164e-05
0.02216666667,-1.495648212e-05
0.0221875,-1.404841896e-05
0.02220833333,-1.318164232e-05
0.02222916667,-1.176459864e-05
0.02225,-1.042479471e-05
0.02227083333,-9.475125808e-06
0.02229166667,-9.415471141e-06
0.0223125,-9.513065379e-06
0.02233333333,-9.744104318e-06
0.02235416667,-9.041337762e-06
0.022375,-7.77835703e-06
0.02239583333,-5.274696377e-06
0.02241666667,-3.287722848e-06
0.0224375,-1.802423185e-06
0.02245833333,-1.908548256e-06
0.02247916667,-2.537060482e-06
0.0225,-3.49310335e-06
0.02252083333,-3.421476549e-06
0.02254166667,-2.908131364e-06
0.0225625,-1.639630113e-06
0.02258333333,-7.242016409e-07
0.02260416667,2.990107077e-07
0.022625,6.268162451e-07
0.02264583333,1.414094868e-06
0.02266666667,2.076515102e-06
0.0226875,3.312627996e-06
0.02270833333,3.96680025e-06
0.02272916667,5.028843589e-06
0.02275,5.845113265e-06
0.02277083333,7.421069313e-06
0.02279166667,8.839186194e-06
0.0228125,1.034065463e-05
0.02283333333,1.108081415e-05
0.02285416667,1.135058119e-05
0.022875,1.06442676e-05
0.02289583333,1.078241712e-05
0.02291666667,1.089485067e-05
0.0229375,1.199949475e-05
0.02295833333,1.279815024e-05
0.02297916667,1.348302794e-05
0.023,1.30858316e-05
0.02302083333,1.278009586e-05
0.02304166667,1.221316779e-05
0.0230625,1.27107578e-05
0.02308333333,1.316895032e-05
0.02310416667,1.381281527e-05
0.023125,1.350393177e-05
0.02314583333,1.323297965e-05
0.02316666667,1.209223228e-05
0.0231875,1.128966414e-05
0.02320833333,1.082075232e-05
0.02322916667,1.083678671e-05
0.02325,1.053910819e-05
0.02327083333,1.064834032e-05
0.02329166667,1.012239045e-05
0.0233125,1.020835134e-05
0.02333333333,9.943839359e-06
0.02335416667,1.066843288e-05
0.023375,1.099188466e-05
0.02339583333,1.192819582e-05
0.02341666667,1.199626058e-05
0.0234375,1.251202684e-05
0.02345833333,1.23416894e-05
0.02347916667,1.23601103e-05
0.0235,1.150813478e-05
0.02352083333,1.038257324e-05
0.02354166667,8.105453162e-06
0.0235625,6.163745184e-06
0.02358333333,3.814107004e-06
0.02360416667,2.5629829e-06
0.023625,1.677564342e-06
0.02364583333,1.800408427e-06
0.02366666667,1.179707169e-06
0.0236875,9.965801837e-07
0.02370833333,-1.255502866e-06
0.02372916667,-3.025545993e-06
0.02375,-5.185728696e-06
0.02377083333,-5.840105587e-06
0.02379166667,-6.420111276e-06
0.0238125,-5.684360076e-06
0.02383333333,-6.668191872e-06
0.02385416667,-7.524860848e-06
0.023875,-9.362100172e-06
0.02389583333,-1.049257844e-05
0.02391666667,-1.127633186e-05
0.0239375,-1.079013782e-05
0.02395833333,-1.091995728e-05
0.02397916667,-1.076035551e-05
0.024,-1.193261323e-05
0.02402083333,-1.275543764e-05
0.02404166667,-1.394444007e-05
0.0240625,-1.404205614e-05
0.02408333333,-1.451554908e-05
0.02410416667,-1.399813118e-05
0.024125,-1.458208226e-05
0.02414583333,-1.482603329e-05
0.02416666667,-1.638184767e-05
0.0241875,-1.754098048e-05
0.02420833333,-1.990343662e-05
0.02422916667,-2.161927659e-05
0.02425,-2.369003414e-05
0.02427083333,-2.419773591e-05
0.02429166667,-2.468163802e-05
0.0243125,-2.397694698e-05
0.02433333333,-2.388277426e-05
0.02435416667,-2.311117169e-05
0.024375,-2.344535824e-05
0.02439583333,-2.289009353e-05
0.02441666667,-2.286001836e-05
0.0244375,-2.208202022e-05
0.02445833333,-2.24518426e-05
0.02447916667,-2.248667806e-05
0.0245,-2.373785173e-05
0.02452083333,-2.394448165e-05
0.02454166667,-2.383089668e-05
0.0245625,-2.266545198e-05
0.02458333333,-2.194940862e-05
0.02460416667,-2.032416342e-05
0.024625,-1.955634252e-05
0.02464583333,-1.800160317e-05
0.02466666667,-1.714550672e-05
0.0246875,-1.568599146e-05
0.02470833333,-1.572007932e-05
0.02472916667,-1.563162368e-05
0.02475,-1.696618347e-05
0.02477083333,-1.694066668e-05
0.02479166667,-1.785792483e-05
0.0248125,-1.781848368e-05
0.02483333333,-1.927576159e-05
0.02485416667,-2.069305992e-05
0.024875,-2.360325198e-05
0.02489583333,-2.460293217e-05
0.02491666667,-2.449827662e-05
0.0249375,-2.212497384e-05
0.02495833333,-1.941292248e-05
0.02497916667,-1.586041981e-05
0.025,-1.413170685e-05
0.02502083333,-1.180876825e-05
0.02504166667,-1.093859919e-05
0.0250625,-8.984618944e-06
0.02508333333,-7.597431704e-06
0.02510416667,-5.151201094e-06
0.025125,-4.152432211e-06
0.02514583333,-1.870267852e-06
0.02516666667,-1.214729309e-06
0.0251875,-4.967469067e-07
0.02520833333,-9.787013369e-07
0.02522916667,-1.738417268e-06
0.02525,-2.67957239e-06
0.02527083333,-1.867602805e-06
0.02529166667,-1.667729521e-06
0.0253125,-1.342673386e-06
0.02533333333,-3.147663847e-06
0.02535416667,-5.249165042e-06
0.025375,-8.625389455e-06
0.02539583333,-9.732249964e-06
0.02541666667,-9.23497555e-06
0.0254375,-6.143483006e-06
0.02545833333,-2.930069058e-06
0.02547916667,-1.014277586e-07
0.0255,1.821172191e-08
0.02552083333,8.870301826e-09
0.02554166667,-4.504890967e-07
0.0255625,4.654193617e-07
0.02558333333,1.298146344e-06
0.02560416667,3.02625358e-06
0.025625,2.224251148e-06
0.02564583333,2.286934432e-06
0.02566666667,7.992330211e-07
0.0256875,6.325126378e-07
0.02570833333,-1.199305188e-06
0.02572916667,-3.058665243e-06
0.02575,-6.547033991e-06
0.02577083333,-8.402508684e-06
0.02579166667,-9.899916222e-06
0.0258125,-7.851691407e-06
0.02583333333,-5.586283805e-06
0.02585416667,-1.742378117e-06
0.025875,-1.247217369e-07
0.02589583333,1.886211521e-06
0.02591666667,1.193744083e-06
0.0259375,1.275857358e-06
0.02595833333,1.582590812e-06
0.02597916667,2.38372013e-06
0.026,1.032406999e-06
0.02602083333,4.854432518e-07
0.02604166667,-1.987795713e-06
0.0260625,-4.488891136e-06
0.02608333333,-7.564391126e-06
0.02610416667,-9.074664376e-06
0.026125,-1.035623154e-05
0.02614583333,-9.953122571e-06
0.02616666667,-1.039063864e-05
0.0261875,-1.038863138e-05
0.02620833333,-1.274015085e-05
0.02622916667,-1.480155242e-05
0.02625,-1.68926781e-05
0.02627083333,-1.654236257e-05
0.02629166667,-1.508553396e-05
0.0263125,-1.264431921e-05
0.02633333333,-1.170098403e-05
0.02635416667,-1.228634028e-05
0.026375,-1.446953684e-05
0.02639583333,-1.509588128e-05
0.02641666667,-1.493075251e-05
0.0264375,-1.291788976e-05
0.02645833333,-1.13660335e-05
0.02647916667,-1.083093412e-05
0.0265,-1.272565714e-05
0.02652083333,-1.464186425e-05
0.02654166667,-1.67292601e-05
0.0265625,-1.700311077e-05
0.02658333333,-1.85945064e-05
0.02660416667,-1.972959035e-05
0.026625,-2.316306927e-05
0.02664583333,-2.473045424e-05
0.02666666667,-2.505061821e-05
0.0266875,-2.222000512e-05
0.02670833333,-1.999692904e-05
0.02672916667,-1.824229548e-05
0.02675,-1.953578612e-05
0.02677083333,-1.983543734e-05
0.02679166667,-1.850959961e-05
0.0268125,-1.336571586e-05
0.02683333333,-8.465072824e-06
0.02685416667,-4.112192528e-06
0.026875,-5.231653631e-06
0.02689583333,-8.015300409e-06
0.02691666667,-1.323140441e-05
0.0269375,-1.588216219e-05
0.02695833333,-1.806484579e-05
0.02697916667,-1.954802246e-05
0.027,-2.450904685e-05
0.02702083333,-2.823095201e-05
0.02704166667,-3.01524542e-05
0.0270625,-2.779198257e-05
0.02708333333,-2.213372136e-05
0.02710416667,-1.449800948e-05
0.027125,-9.117095942e-06
0.02714583333,-5.620981938e-06
0.02716666667,-5.269491339e-06
0.0271875,-3.117728966e-06
0.02720833333,-1.804204203e-06
0.02722916667,1.561114004e-06
0.02725,4.055796126e-06
0.02727083333,6.150880381e-06
0.02729166667,5.335803962e-06
0.0273125,2.699972811e-06
0.02733333333,-3.166407623e-06
0.02735416667,-9.405262972e-06
0.027375,-1.532727765e-05
0.02739583333,-1.802925181e-05
0.02741666667,-1.81262476e-05
0.0274375,-1.49760308e-05
0.02745833333,-1.225949381e-05
0.02747916667,-1.025218353e-05
0.0275,-9.531051546e-06
0.02752083333,-8.110879207e-06
0.02754166667,-5.266693734e-06
0.0275625,-5.604319995e-07
0.02758333333,2.299286507e-06
0.02760416667,2.91922106e-06
0.027625,7.256528534e-07
0.02764583333,2.506354349e-06
0.02766666667,6.897141702e-06
0.0276875,1.55147718e-05
0.02770833333,2.18998448e-05
0.02772916667,2.54835777e-05
0.02775,2.29481102e-05
0.02777083333,1.960849841e-05
0.02779166667,1.691230864e-05
0.0278125,1.899209747e-05
0.02783333333,2.158543793e-05
0.02785416667,2.110493369e-05
0.027875,1.204645105e-05
0.02789583333,1.444295322e-06
0.02791666667,-7.874068615e-06
0.0279375,-6.859042514e-06
0.02795833333,1.065720426e-06
0.02797916667,1.031381453e-05
0.028,1.192219952e-05
0.02802083333,1.051374511e-05
0.02804166667,3.480090072e-06
0.0280625,1.224996595e-06
0.02808333333,3.586420462e-06
0.02810416667,1.019525371e-05
0.028125,1.634995897e-05
0.02814583333,2.007132935e-05
0.02816666667,1.916649126e-05
0.0281875,1.744290785e-05
0.02820833333,1.115491341e-05
0.02822916667,2.329688414e-06
0.02825,-1.259548753e-05
0.02827083333,-2.480918374e-05
0.02829166667,-3.263739563e-05
0.0283125,-2.74296799e-05
0.02833333333,-1.363403317e-05
0.02835416667,4.382142379e-06
0.028375,1.927495032e-05
0.02839583333,2.639746708e-05
0.02841666667,2.481815682e-05
0.0284375,1.894739762e-05
0.02845833333,1.284391874e-05
0.02847916667,1.185138353e-05
0.0285,1.289916781e-05
0.02852083333,1.425553637e-05
0.02854166667,8.503585377e-06
0.0285625,-4.023149813e-08
0.02858333333,-1.281912864e-05
0.02860416667,-2.3746632e-05
0.028625,-2.972459879e-05
0.02864583333,-2.567676347e-05
0.02866666667,-1.805284046e-05
0.0286875,-1.220083141e-05
0.02870833333,-1.70382591e-05
0.02872916667,-3.21261432e-05
0.02875,-5.426214921e-05
0.02877083333,-6.454777758e-05
0.02879166667,-6.542792835e-05
0.0288125,-5.07407276e-05
0.02883333333,-3.701128662e-05
0.02885416667,-2.979511555e-05
0.028875,-3.578114411e-05
0.02889583333,-4.54944784e-05
0.02891666667,-5.168637654e-05
0.0289375,-4.500863361e-05
0.02895833333,-3.051563181e-05
0.02897916667,-2.363690874e-05
0.029,-2.967401815e-05
0.02902083333,-3.66137574e-05
0.02904166667,-4.516142508e-05
0.0290625,-3.730934259e-05
0.02908333333,-2.799568392e-05
0.02910416667,-1.925044853e-05
0.029125,-3.051213207e-05
0.02914583333,-4.800121678e-05
0.02916666667,-6.746708095e-05
0.0291875,-7.79076363e-05
0.02920833333,-7.853229181e-05
0.02922916667,-8.047592564e-05
0.02925,-8.974003867e-05
0.02927083333,-0.000101205078
0.02929166667,-0.000107530177
0.0293125,-9.378534742e-05
0.02933333333,-6.825798482e-05
0.02935416667,-4.178094605e-05
0.029375,-4.317995626e-05
0.02939583333,-6.185844541e-05
0.02941666667,-8.607116615e-05
0.0294375,-9.555185534e-05
0.02945833333,-8.985950262e-05
0.02947916667,-8.708733367e-05
0.0295,-9.74411887e-05
0.02952083333,-0.0001241115388
0.02954166667,-0.0001532417227
0.0295625,-0.0001433215366
0.02958333333,-7.769608783e-05
0.02960416667,2.270957702e-05
0.029625,0.0001080539005
0.02964583333,0.0001373343985
0.02966666667,0.0001052857115
0.0296875,3.346751328e-05
0.02970833333,-2.737769864e-05
0.02972916667,-6.498151924e-05
0.02975,-7.084194658e-05
0.02977083333,-7.471340359e-05
0.02979166667,-7.846879453e-05
0.0298125,-7.519506471e-05
0.02983333333,-5.553821393e-05
0.02985416667,-4.516813715e-05
0.029875,-8.21431895e-05
0.02989583333,-0.0001780343009
0.02991666667,-0.0003175536694
0.0299375,-0.0004392334959
0.02995833333,-0.0004315144033
0.02997916667,-0.0003370144696
0.03,0.0002578096755
0.03002083333,0.0003655239125
0.03004166667,0.0003901406599
0.0300625,0.0002784843964
0.03008333333,0.0001422179048
0.03010416667,4.500178329e-05
0.030125,8.43973703e-06
0.03014583333,1.994567538e-05
0.03016666667,4.316155901e-05
0.0301875,5.043053898e-05
0.03020833333,4.603992056e-05
0.03022916667,4.900888234e-05
0.03025,4.716622789e-05
0.03027083333,1.167954906e-05
0.03029166667,-5.374493776e-05
0.0303125,-0.0001387202938
0.03033333333,-0.0001848687534
0.03035416667,-0.000159729243
0.030375,-7.077484042e-05
0.03039583333,4.223581709e-05
0.03041666667,0.0001176479782
0.0304375,0.0001319916046
0.03045833333,9.833618242e-05
0.03047916667,7.246335736e-05
0.0305,6.464502076e-05
0.03052083333,7.484253729e-05
0.03054166667,8.760170022e-05
0.0305625,8.040836838e-05
0.03058333333,5.858697841e-05
0.03060416667,3.441376975e-05
0.030625,3.541875776e-05
0.03064583333,7.431838458e-05
0.03066666667,0.000105666164
0.0306875,0.000132242887
0.03070833333,0.0001230643684
0.03072916667,0.0001054273889
0.03075,9.143201896e-05
0.03077083333,8.61810986e-05
0.03079166667,8.557437104e-05
0.0308125,7.19768359e-05
0.03083333333,4.403624916e-05
0.03085416667,2.615292942e-05
0.030875,1.452788456e-05
0.03089583333,3.588211621e-05
0.03091666667,5.564859384e-05
0.0309375,7.552558964e-05
0.03095833333,6.549734826e-05
0.03097916667,5.458968008e-05
0.031,4.495041867e-05
0.03102083333,5.907519881e-05
0.03104166667,8.464057464e-05
0.0310625,0.0001025678648
0.03108333333,9.482849418e-05
0.03110416667,7.901075151e-05
0.031125,6.26774272e-05
0.03114583333,6.700427184e-05
0.03116666667,8.540031558e-05
0.0311875,0.000110888519
0.03120833333,0.0001138197986
0.03122916667,0.000103225233
0.03125,6.912348908e-05
0.03127083333,5.18740635e-05
0.03129166667,4.926872498e-05
0.0313125,6.705877604e-05
0.03133333333,9.115794819e-05
0.03135416667,0.0001005481099
0.031375,9.3512077e-05
0.03139583333,7.379182352e-05
0.03141666667,5.000105011e-05
0.0314375,3.830318747e-05
0.03145833333,2.883630987e-05
0.03147916667,3.776607991e-05
0.0315,4.189581887e-05
0.03152083333,4.257823821e-05
0.03154166667,2.980871795e-05
0.0315625,1.875546877e-05
0.03158333333,1.245750809e-05
0.03160416667,2.048816896e-05
0.031625,4.463175355e-05
0.03164583333,7.412822742e-05
0.03166666667,9.844399756e-05
0.0316875,0.0001158737214
0.03170833333,0.0001037253605
0.03172916667,8.535338566e-05
0.03175,6.284997653e-05
0.03177083333,5.164514005e-05
0.03179166667,4.232185893e-05
0.0318125,3.452101009e-05
0.03183333333,2.986330946e-05
0.03185416667,3.263965846e-05
0.031875,4.351932876e-05
0.03189583333,5.885231076e-05
0.03191666667,6.536101864e-05
0.0319375,6.23701344e-05
0.03195833333,4.048877963e-05
0.03197916667,3.9475417e-05
0.032,4.471583088e-05
0.03202083333,7.066877879e-05
0.03204166667,9.688639693e-05
0.0320625,0.000105993211
0.03208333333,9.12649848e-05
0.03210416667,7.371089305e-05
0.032125,5.344335295e-05
0.03214583333,5.673348278e-05
0.03216666667,6.359990948e-05
0.0321875,6.56013799e-05
0.03220833333,6.201241195e-05
0.03222916667,5.240507016e-05
0.03225,4.381503823e-05
0.03227083333,4.754665133e-05
0.03229166667,5.270684778e-05
0.0323125,5.816765042e-05
0.03233333333,4.921362051e-05
0.03235416667,4.241034549e-05
0.032375,2.969623529e-05
0.03239583333,3.89559209e-05
0.03241666667,5.659194358e-05
0.0324375,7.712893421e-05
0.03245833333,8.863698167e-05
0.03247916667,9.850219067e-05
0.0325,0.0001052753505
0.03252083333,0.0001179491228
0.03254166667,0.000126691375
0.0325625,0.000138002637
0.03258333333,0.0001409820106
0.03260416667,0.0001308578067
0.032625,0.0001232452341
0.03264583333,0.00010977083
0.03266666667,0.0001037348702
0.0326875,9.976212459e-05
0.03270833333,8.225026977e-05
0.03272916667,6.804986333e-05
0.03275,5.230779061e-05
0.03277083333,5.863129263e-05
0.03279166667,6.491166278e-05
0.0328125,7.877135067e-05
0.03283333333,8.813556633e-05
0.03285416667,9.450233483e-05
0.032875,0.0001116737985
0.03289583333,0.0001289742941
0.03291666667,0.0001397836022
0.0329375,0.0001454362355
0.03295833333,0.0001478169288
0.03297916667,0.000141725759
0.033,0.0001368983794
0.03302083333,0.0001358964073
0.03304166667,0.0001337451831
0.0330625,0.0001291545341
0.03308333333,0.0001099433866
0.03310416667,9.157761815e-05
0.033125,8.510969201e-05
0.03314583333,9.605182277e-05
0.03316666667,0.0001202651765
0.0331875,0.0001427831594
0.03320833333,0.00015393176
0.03322916667,0.0001500599028
0.03325,0.0001371707331
0.03327083333,0.0001316295093
0.03329166667,0.0001320812444
0.0333125,0.0001416125742
0.03333333333,0.000151282642
0.03335416667,0.0001479881321
0.033375,0.0001395423897
0.03339583333,0.000137424373
0.03341666667,0.0001351445244
0.0334375,0.0001268944907
0.03345833333,0.0001167517621
0.03347916667,0.0001097227432
0.0335,0.0001069528735
0.03352083333,0.0001036444082
0.03354166667,0.0001223795698
0.0335625,0.0001321413001
0.03358333333,0.0001470510615
0.03360416667,0.0001423026115
0.033625,0.0001300624572
0.03364583333,0.0001174704594
0.03366666667,0.0001202350686
0.0336875,0.0001374782005
0.03370833333,0.0001609529136
0.03372916667,0.0001859816548
0.03375,0.0001952759339
0.03377083333,0.0001904511882
0.03379166667,0.0001807883673
0.0338125,0.0001696580584
0.03383333333,0.0001574017224
0.03385416667,0.0001442122011
0.033875,0.0001425660303
0.03389583333,0.0001333452965
0.03391666667,0.0001352234976
0.0339375,0.0001299411524
0.03395833333,0.0001158242958
0.03397916667,9.848819172e-05
0.034,8.463958511e-05
0.03402083333,7.114770415e-05
0.03404166667,6.556301378e-05
0.0340625,5.778072955e-05
0.03408333333,7.560910308e-05
0.03410416667,9.54989664e-05
0.034125,0.0001478678896
0.03414583333,0.0001808115921
0.03416666667,0.0002138268319
0.0341875,0.0002162283636
0.03420833333,0.0002003554837
0.03422916667,0.0001828240784
0.03425,0.0001618825481
0.03427083333,0.0001515055337
0.03429166667,0.0001472829608
0.0343125,0.0001509926515
0.03433333333,0.0001395394502
0.03435416667,0.0001344481861
0.034375,0.0001218760008
0.03439583333,0.0001049269122
0.03441666667,9.899339784e-05
0.0344375,8.595837426e-05
0.03445833333,0.0001018853582
0.03447916667,0.00011867594
0.0345,0.0001517362543
0.03452083333,0.0001822466002
0.03454166667,0.0002127311891
0.0345625,0.0002246287768
0.03458333333,0.0002388106368
0.03460416667,0.0002299069165
0.034625,0.0002205906057
0.03464583333,0.000195894987
0.03466666667,0.0001875976013
0.0346875,0.0001810837275
0.03470833333,0.0001833704009
0.03472916667,0.0001773081894
0.03475,0.0001737103157
0.03477083333,0.000151484317
0.03479166667,0.0001358254231
0.0348125,0.0001208259637
0.03483333333,0.0001315591508
0.03485416667,0.0001424467919
0.034875,0.0001638556569
0.03489583333,0.0001807697845
0.03491666667,0.0002051425108
0.0349375,0.0002157430572
0.03495833333,0.0002456714574
0.03497916667,0.0002772213775
0.035,0.0002895408834
0.03502083333,0.0002942431893
0.03504166667,0.0003035826667
0.0350625,0.0002978283155
0.03508333333,0.0003017403942
0.03510416667,0.0002966829925
0.035125,0.0002868139709
0.03514583333,0.0002650072274
0.03516666667,0.0002523099247
0.0351875,0.0002380153746
0.03520833333,0.0002372256131
0.03522916667,0.0002297886822
0.03525,0.0002386362321
0.03527083333,0.0002337508922
0.03529166667,0.0002378791396
0.0353125,0.0002452783228
0.03533333333,0.0002539430861
0.03535416667,0.00027084467
0.035375,0.0002790873987
0.03539583333,0.0002748948173
0.03541666667,0.0002921530977
0.0354375,0.0002821345406
0.03545833333,0.0003014579415
0.03547916667,0.0002902373089
0.0355,0.0003082358162
0.03552083333,0.0003011162626
0.03554166667,0.0003088759258
0.0355625,0.0003015897528
0.03558333333,0.000308577437
0.03560416667,0.0003015827388
0.035625,0.0003168541007
0.03564583333,0.0003328807652
0.03566666667,0.000342905405
0.0356875,0.000323539658
0.03570833333,0.00032916895
0.03572916667,0.0003167116665
0.03575,0.0003241162922
0.03577083333,0.0003290414461
0.03579166667,0.0003276980424
0.0358125,0.00030098774
0.03583333333,0.000278475607
0.03585416667,0.0002611349919
0.035875,0.0002763044031
0.03589583333,0.0002830312296
0.03591666667,0.0003125855583
0.0359375,0.0003365033772
0.03595833333,0.000343739579
0.03597916667,0.0003485002962
0.036,0.0003536449512
0.03602083333,0.0003608679399
0.03604166667,0.0003926173958
0.0360625,0.000389058463
0.03608333333,0.0003957807494
0.03610416667,0.0003817714169
0.036125,0.0003802487045
0.03614583333,0.0003873067326
0.03616666667,0.0004003809299
0.0361875,0.000413757778
0.03620833333,0.0004030916025
0.03622916667,0.0003742634144
0.03625,0.0003535148862
0.03627083333,0.0003328169114
0.03629166667,0.0003385984746
0.0363125,0.0003401260183
0.03633333333,0.0003537741432
0.03635416667,0.0003506200155
0.036375,0.0003367705795
0.03639583333,0.0003384031879
0.03641666667,0.0003347526945
0.0364375,0.0003346702142
0.03645833333,0.0003415827523
0.03647916667,0.0003281420795
0.0365,0.0003363899887
0.03652083333,0.0003187390394
0.03654166667,0.0003143434296
0.0365625,0.000321483647
0.03658333333,0.0003300402896
0.03660416667,0.0003602637735
0.036625,0.0003770688782
0.03664583333,0.0003938965383
0.03666666667,0.0003983497736
0.0366875,0.000393854396
0.03670833333,0.0003825457825
0.03672916667,0.0003617412003
0.03675,0.0003590971755
0.03677083333,0.0003359344846
0.03679166667,0.0003251426097
0.0368125,0.0003200155625
0.03683333333,0.0002976404212
0.03685416667,0.0002982901642
0.036875,0.0002958020777
0.03689583333,0.0003045862832
0.03691666667,0.0003144763177
0.0369375,0.0003413116792
0.03695833333,0.0003456502454
0.03697916667,0.0003517509904
0.037,0.0003485773632
0.03702083333,0.0003427779302
0.03704166667,0.0003412181395
0.0370625,0.0003524814674
0.03708333333,0.0003591439745
0.03710416667,0.0003654930624
0.037125,0.0003744018031
0.03714583333,0.0003812248469
0.03716666667,0.0003794667136
0.0371875,0.0003551401605
0.03720833333,0.0003196193429
0.03722916667,0.0002989449713
0.03725,0.0002775769099
0.03727083333,0.0002819612273
0.03729166667,0.0003005024337
0.0373125,0.0003283084952
0.03733333333,0.0003540121543
0.03735416667,0.0003782059648
0.037375,0.0003568833054
0.03739583333,0.0003583687649
0.03741666667,0.0003387583711
0.0374375,0.0003433630918
0.03745833333,0.000336764555
0.03747916667,0.0003498503938
0.0375,0.000352049683
0.03752083333,0.000383158098
0.03754166667,0.0003789326875
0.0375625,0.0003972034319
0.03758333333,0.0003851665533
0.03760416667,0.0003818959522
0.037625,0.0003525256761
0.03764583333,0.0003435106482
0.03766666667,0.0003407064069
0.0376875,0.0003511256073
0.03770833333,0.0003501197498
0.03772916667,0.0003617324401
0.03775,0.0003622715885
0.03777083333,0.0003856683325
0.03779166667,0.0003912064712
0.0378125,0.00041606577
0.03783333333,0.0004098701174
0.03785416667,0.0004195769143
0.037875,0.0004124655388
0.03789583333,0.0004290409852
0.03791666667,0.0004356309655
0.0379375,0.0004392603878
0.03795833333,0.0004120008962
0.03797916667,0.0003870447981
0.038,0.00034303742
0.03802083333,0.0003204526438
0.03804166667,0.0002831167367
0.0380625,0.0002575852268
0.03808333333,0.0002414097835
0.03810416667,0.0002366463887
0.038125,0.0002392228344
0.03814583333,0.0002578027197
0.03816666667,0.0002631873358
0.0381875,0.0002994834504
0.03820833333,0.0003059637384
0.03822916667,0.0003342097625
0.03825,0.0003256155178
0.03827083333,0.0003691635793
0.03829166667,0.0003693928011
0.0383125,0.0003815537202
0.03833333333,0.000396502146
0.03835416667,0.0003932588152
0.038375,0.0003517440346
0.03839583333,0.0003344235593
0.03841666667,0.0003128014796
0.0384375,0.0002830084122
0.03845833333,0.0002634117263
0.03847916667,0.0002508721082
0.0385,0.0002368137502
0.03852083333,0.0002471228363
0.03854166667,0.0002465329599
0.0385625,0.0002770926803
0.03858333333,0.0002958937548
0.03860416667,0.0003290833847
0.038625,0.0003305583086
0.03864583333,0.000343353604
0.03866666667,0.0003225800174
0.0386875,0.0002995752729
0.03870833333,0.000272938807
0.03872916667,0.0002627570648
0.03875,0.0002405328123
0.03877083333,0.0002360920626
0.03879166667,0.0002341303771
0.0388125,0.000237521861
0.03883333333,0.0002064321161
0.03885416667,0.0001595728972
0.038875,0.0001177080121
0.03889583333,0.000101450074
0.03891666667,0.0001036946051
0.0389375,0.0001111468446
0.03895833333,0.0001197613456
0.03897916667,0.0001532420283
0.039,0.0001409661345
0.03902083333,0.0001321877935
0.03904166667,0.0001064237804
0.0390625,6.370153278e-05
0.03908333333,-8.487797459e-06
0.03910416667,-3.57672543e-05
0.039125,-6.401384599e-05
0.03914583333,-4.221845302e-05
0.03916666667,5.059762771e-06
0.0391875,3.391940845e-05
0.03920833333,6.971113908e-05
0.03922916667,7.026445383e-05
0.03925,6.040867083e-05
0.03927083333,4.954720498e-05
0.03929166667,5.833401883e-05
0.0393125,0.0001178259336
0.03933333333,0.0001283344754
0.03935416667,0.0001402558701
0.039375,0.0001378230081
0.03939583333,0.0001239123521
0.03941666667,0.0001032859655
0.0394375,8.250817336e-05
0.03945833333,4.526733392e-05
0.03947916667,8.073853678e-06
0.0395,-3.47306559e-05
0.03952083333,-5.722785863e-05
0.03954166667,-6.418728299e-05
0.0395625,-5.207458889e-05
0.03958333333,-4.693417941e-05
0.03960416667,-5.577663615e-05
0.039625,-5.958841211e-05
0.03964583333,-8.127145702e-05
0.03966666667,-7.278675184e-05
0.0396875,-7.218213432e-05
0.03970833333,-5.809986396e-05
0.03972916667,-5.001285899e-05
0.03975,-5.879783566e-05
0.03977083333,-5.171252633e-05
0.03979166667,-3.117352753e-05
0.0398125,-2.855771891e-05
0.03983333333,-2.065052104e-05
0.03985416667,-3.471269156e-05
0.039875,-5.099948248e-05
0.03989583333,-6.204412057e-05
0.03991666667,-9.339893586e-05
0.0399375,-8.079938561e-05
0.03995833333,-5.330239583e-05
0.03997916667,-4.868212272e-05
0.04,-2.882596709e-05
0.04002083333,-3.802185165e-05
0.04004166667,-7.752900274e-06
0.0400625,-1.861845158e-05
0.04008333333,-2.416065036e-05
0.04010416667,-9.596974269e-05
0.040125,-0.0001030651256
0.04014583333,-0.0001344413613
0.04016666667,-0.0001353597618
0.0401875,-0.000130583081
0.04020833333,-8.163088933e-05
0.04022916667,-5.765914102e-05
0.04025,-4.344388799e-05
0.04027083333,-5.673641499e-05
0.04029166667,-5.237721052e-05
0.0403125,-3.906146594e-05
0.04033333333,-2.671153379e-05
0.04035416667,-1.759219595e-05
0.040375,-4.977633125e-06
0.04039583333,-3.166651368e-05
0.04041666667,-2.106675311e-05
0.0404375,-1.965700358e-05
0.04045833333,1.801908547e-05
0.04047916667,1.107689059e-05
0.0405,1.019551928e-05
0.04052083333,-6.796769594e-05
0.04054166667,-0.0001247707842
0.0405625,-0.0001921652438
0.04058333333,-0.0001891514839
0.04060416667,-0.0001924481185
0.040625,-0.0001381766197
0.04064583333,-0.0001342156465
0.04066666667,-0.0001246253087
0.0406875,-0.0001318442228
0.04070833333,-0.0001364839554
0.04072916667,-0.0001678351255
0.04075,-0.0001955586486
0.04077083333,-0.0002177137358
0.04079166667,-0.0002450380707
0.0408125,-0.0002632476971
0.04083333333,-0.0002545616589
0.04085416667,-0.0002616396814
0.040875,-0.0002780010691
0.04089583333,-0.0003096531727
0.04091666667,-0.0003414595558
0.0409375,-0.0003922920441
0.04095833333,-0.0004011295387
0.04097916667,-0.000392797403
0.041,-0.0003729906166
0.04102083333,-0.0003670738079
0.04104166667,-0.0003391606151
0.0410625,-0.0003515221761
0.04108333333,-0.0003471582313
0.04110416667,-0.0003676030319
0.041125,-0.0003780935949
0.04114583333,-0.0004127171997
0.04116666667,-0.0004367756774
0.0411875,-0.0004703072191
0.04120833333,-0.0004834137799
0.04122916667,-0.0005034916103
0.04125,-0.0004916492035
0.04127083333,-0.0005118739209
0.04129166667,-0.0005363952368
0.0413125,-0.0005720663466
0.04133333333,-0.0005770791904
0.04135416667,-0.0005738112959
0.041375,-0.0005639614537
0.04139583333,-0.0005762463552
0.04141666667,-0.0005797802005
0.0414375,-0.0006080015446
0.04145833333,-0.0005986015312
0.04147916667,-0.0006151015405
0.0415,-0.0006205698592
0.04152083333,-0.0006656988407
0.04154166667,-0.0007239092374
0.0415625,-0.0007763869362
0.04158333333,-0.0007904284867
0.04160416667,-0.0007696362445
0.041625,-0.0007357372087
0.04164583333,-0.0007287346525
0.04166666667,-0.0007174538332
0.0416875,-0.0007288535126
0.04170833333,-0.0007316286792
0.04172916667,-0.0007566309068
0.04175,-0.0007676802343
0.04177083333,-0.000783158408
0.04179166667,-0.0007752462407
0.0418125,-0.0007815400022
0.04183333333,-0.0007628008607
0.04185416667,-0.0007773464895
0.041875,-0.0007740670699
0.04189583333,-0.0007659355761
0.04191666667,-0.00078236236
0.0419375,-0.0008334264276
0.04195833333,-0.0008532491047
0.04197916667,-0.0008833304164
0.042,-0.0008528913604
0.04202083333,-0.0008533647051
0.04204166667,-0.0008328420809
0.0420625,-0.0008014251944
0.04208333333,-0.0007748435601
0.04210416667,-0.0007434845902
0.042125,-0.0007252671639
0.04214583333,-0.0007410303806
0.04216666667,-0.0007218123646
0.0421875,-0.0007437485619
0.04220833333,-0.0007555303746
0.04222916667,-0.0007840147009
0.04225,-0.0007700037095
0.04227083333,-0.0008009288576
0.04229166667,-0.0007923513185
0.0423125,-0.0008390829316
0.04233333333,-0.0008759481134
0.04235416667,-0.0009313811315
0.042375,-0.0009925171034
0.04239583333,-0.001032625558
0.04241666667,-0.0010587211
0.0424375,-0.001058748458
0.04245833333,-0.001034593675
0.04247916667,-0.00102712994
0.0425,-0.0009728456498
0.04252083333,-0.0009758580709
0.04254166667,-0.0009713454638
0.0425625,-0.0009870579233
0.04258333333,-0.0009820591658
0.04260416667,-0.0009752396727
0.042625,-0.0009565236978
0.04264583333,-0.0009446564945
0.04266666667,-0.0009401749703
0.0426875,-0.0009696190245
0.04270833333,-0.0009707647841
0.04272916667,-0.001012900611
0.04275,-0.001030797372
0.04277083333,-0.001042894903
0.04279166667,-0.001025133533
0.0428125,-0.001003843965
0.04283333333,-0.0009665345424
0.04285416667,-0.0009798714891
0.042875,-0.001000974211
0.04289583333,-0.001027684193
0.04291666667,-0.001038895221
0.0429375,-0.001023300691
0.04295833333,-0.001011133776
0.04297916667,-0.001014333684
0.043,-0.001024983823
0.04302083333,-0.001062697615
0.04304166667,-0.001094918116
0.0430625,-0.00112726388
0.04308333333,-0.001122224843
0.04310416667,-0.001137107494
0.043125,-0.001099751331
0.04314583333,-0.001081706374
0.04316666667,-0.001034238259
0.0431875,-0.001031510299
0.04320833333,-0.00103603641
0.04322916667,-0.00104122865
0.04325,-0.001025913749
0.04327083333,-0.001063532662
0.04329166667,-0.001058216905
0.0433125,-0.001076813089
0.04333333333,-0.001067277743
0.04335416667,-0.001064633252
0.043375,-0.001060946612
0.04339583333,-0.001103532501
0.04341666667,-0.001158002531
0.0434375,-0.001223636675
0.04345833333,-0.001256304327
0.04347916667,-0.001293798909
0.0435,-0.001301069045
0.04352083333,-0.001320676995
0.04354166667,-0.001354784006
0.0435625,-0.00142704579
0.04358333333,-0.001465193578
0.04360416667,-0.00150766049
0.043625,-0.001486224355
0.04364583333,-0.001485015731
0.04366666667,-0.001470440999
0.0436875,-0.001455491874
0.04370833333,-0.00143567007
0.04372916667,-0.001408512704
0.04375,-0.001364152879
0.04377083333,-0.00135551102
0.04379166667,-0.001339856302
0.0438125,-0.001361159142
0.04383333333,-0.001384341391
0.04385416667,-0.001415761653
0.043875,-0.001417880761
0.04389583333,-0.00142668921
0.04391666667,-0.001442649635
0.0439375,-0.001498390571
0.04395833333,-0.001556818257
0.04397916667,-0.001603689743
0.044,-0.001621304895
0.04402083333,-0.001607576502
0.04404166667,-0.001563671511
0.0440625,-0.001516158343
0.04408333333,-0.001484372886
0.04410416667,-0.001463555614
0.044125,-0.00141618622
0.04414583333,-0.00140922796
0.04416666667,-0.001372389961
0.0441875,-0.001379931578
0.04420833333,-0.001405317103
0.04422916667,-0.001434946549
0.04425,-0.001455056015
0.04427083333,-0.00146627205
0.04429166667,-0.001441318309
0.0443125,-0.001455839258
0.04433333333,-0.001461497042
0.04435416667,-0.001512571936
0.044375,-0.001548433211
0.04439583333,-0.001611228217
0.04441666667,-0.001610002015
0.0444375,-0.001602646313
0.04445833333,-0.001597976778
0.04447916667,-0.001589264954
0.0445,-0.001594612026
0.04452083333,-0.001570822904
0.04454166667,-0.001545287087
0.0445625,-0.001540105906
0.04458333333,-0.001517641242
0.04460416667,-0.001513313036
0.044625,-0.001479670405
0.04464583333,-0.001461470267
0.04466666667,-0.001417294727
0.0446875,-0.001419248292
0.04470833333,-0.001403182046
0.04472916667,-0.001422226895
0.04475,-0.001427619136
0.04477083333,-0.001460762694
0.04479166667,-0.001477464219
0.0448125,-0.001491463743
0.04483333333,-0.001476524747
0.04485416667,-0.001479303231
0.044875,-0.001448627096
0.04489583333,-0.001448358642
0.04491666667,-0.001417357707
0.0449375,-0.001409096643
0.04495833333,-0.001409271266
0.04497916667,-0.001477536862
0.045,-0.001508249552
0.04502083333,-0.001586526167
0.04504166667,-0.001633358072
0.0450625,-0.001653647749
0.04508333333,-0.001632066909
0.04510416667,-0.001640724484
0.045125,-0.001643815544
0.04514583333,-0.001662358758
0.04516666667,-0.001697491738
0.0451875,-0.001711297315
0.04520833333,-0.001681005931
0.04522916667,-0.001635574386
0.04525,-0.001567958388
0.04527083333,-0.001522207749
0.04529166667,-0.001467467751
0.0453125,-0.001470535877
0.04533333333,-0.001423826674
0.04535416667,-0.001430006931
0.045375,-0.001416624757
0.04539583333,-0.001466030371
0.04541666667,-0.00150010793
0.0454375,-0.001535761869
0.04545833333,-0.001504601561
0.04547916667,-0.001514608739
0.0455,-0.001481563086
0.04552083333,-0.001513506286
0.04554166667,-0.001472598407
0.0455625,-0.001517708064
0.04558333333,-0.001535527874
0.04560416667,-0.001583085977
0.045625,-0.001614687382
0.04564583333,-0.001643194584
0.04566666667,-0.001659966772
0.0456875,-0.001744845998
0.04570833333,-0.001773104188
0.04572916667,-0.001802959479
0.04575,-0.001809586072
0.04577083333,-0.001838661032
0.04579166667,-0.001827000408
0.0458125,-0.001851923065
0.04583333333,-0.001845832448
0.04585416667,-0.001851381501
0.045875,-0.001871522516
0.04589583333,-0.001886850572
0.04591666667,-0.001886648592
0.0459375,-0.001877511037
0.04595833333,-0.001863965066
0.04597916667,-0.001889958046
0.046,-0.001888136147
0.04602083333,-0.001908218837
0.04604166667,-0.001888475381
0.0460625,-0.001894004759
0.04608333333,-0.001870203763
0.04610416667,-0.001842450118
0.046125,-0.001801151549
0.04614583333,-0.001792039839
0.04616666667,-0.001793868607
0.0461875,-0.001789046568
0.04620833333,-0.00178663421
0.04622916667,-0.001771283336
0.04625,-0.001767668175
0.04627083333,-0.001780610764
0.04629166667,-0.001785511617
0.0463125,-0.00181256223
0.04633333333,-0.001852609683
0.04635416667,-0.001927232952
0.046375,-0.001918426249
0.04639583333,-0.001950168051
0.04641666667,-0.00198527216
0.0464375,-0.002030951437
0.04645833333,-0.002045158762
0.04647916667,-0.002072989941
0.0465,-0.002072928939
0.04652083333,-0.002064421307
0.04654166667,-0.002045008354
0.0465625,-0.002038386418
0.04658333333,-0.002027769107
0.04660416667,-0.002021757886
0.046625,-0.001981629059
0.04664583333,-0.002002921188
0.04666666667,-0.002021814696
0.0466875,-0.002065714914
0.04670833333,-0.002086648485
0.04672916667,-0.002119972603
0.04675,-0.002133250004
0.04677083333,-0.002156210132
0.04679166667,-0.002185069025
0.0468125,-0.002246031072
0.04683333333,-0.00228916388
0.04685416667,-0.002368467161
0.046875,-0.002398768906
0.04689583333,-0.002413859824
0.04691666667,-0.002424443606
0.0469375,-0.002406783868
0.04695833333,-0.002359297592
0.04697916667,-0.002339727711
0.047,-0.002304044086
0.04702083333,-0.002305908129
0.04704166667,-0.002344155218
0.0470625,-0.002404908417
0.04708333333,-0.002434590831
0.04710416667,-0.002474616515
0.047125,-0.0025233794
0.04714583333,-0.002563697286
0.04716666667,-0.002569610719
0.0471875,-0.002636245219
0.04720833333,-0.002684615785
0.04722916667,-0.002726515057
0.04725,-0.002787435427
0.04727083333,-0.002809130121
0.04729166667,-0.002796859713
0.0473125,-0.002768513747
0.04733333333,-0.002702796366
0.04735416667,-0.002641016617
0.047375,-0.002521759598
0.04739583333,-0.002424180973
0.04741666667,-0.002351177856
0.0474375,-0.002310951473
0.04745833333,-0.002291982295
0.04747916667,-0.00232511363
0.0475,-0.002366141649
0.04752083333,-0.002401669044
0.04754166667,-0.002384600462
0.0475625,-0.002337194979
0.04758333333,-0.002254154766
0.04760416667,-0.002226565499
0.047625,-0.002171739237
0.04764583333,-0.002179554431
0.04766666667,-0.002173793502
0.0476875,-0.002160573844
0.04770833333,-0.002105026972
0.04772916667,-0.002076478209
0.04775,-0.001980902627
0.04777083333,-0.001929027261
0.04779166667,-0.001866348088
0.0478125,-0.001809316804
0.04783333333,-0.001738257706
0.04785416667,-0.001738578198
0.047875,-0.001717766048
0.04789583333,-0.001775979297
0.04791666667,-0.001813181909
0.0479375,-0.001911815722
0.04795833333,-0.001996184234
0.04797916667,-0.002072596224
0.048,-0.002107474254
0.04802083333,-0.002153734211
0.04804166667,-0.002136711963
0.0480625,-0.002134028357
0.04808333333,-0.002082733437
0.04810416667,-0.002025669906
0.048125,-0.001964663621
0.04814583333,-0.001901569776
0.04816666667,-0.001832602546
0.0481875,-0.001774109202
0.04820833333,-0.001685663359
0.04822916667,-0.00161650544
0.04825,-0.001536443946
0.04827083333,-0.00148565881
0.04829166667,-0.001457497594
0.0483125,-0.001445995062
0.04833333333,-0.001414839062
0.04835416667,-0.001376976492
0.048375,-0.001300978591
0.04839583333,-0.001295329304
0.04841666667,-0.001288136933
0.0484375,-0.001287347404
0.04845833333,-0.001321553485
0.04847916667,-0.001352568041
0.0485,-0.001356207998
0.04852083333,-0.001328752376
0.04854166667,-0.001247934881
0.0485625,-0.00119963265
0.04858333333,-0.001114280196
0.04860416667,-0.001064588316
0.048625,-0.001006564358
0.04864583333,-0.0009265809203
0.04866666667,-0.0008243402699
0.0486875,-0.000749035622
0.04870833333,-0.000679910183
0.04872916667,-0.0005731260171
0.04875,-0.000462767639
0.04877083333,-0.0003754238714
0.04879166667,-0.0003383377916
0.0488125,-0.0003437309642
0.04883333333,-0.0003491634852
0.04885416667,-0.0003632370499
0.048875,-0.0003571375273
0.04889583333,-0.0003252526512
0.04891666667,-0.0002720552438
0.0489375,-0.0002358186612
0.04895833333,-0.0002168615174
0.04897916667,-0.0001591384789
0.049,-5.132873775e-05
0.04902083333,3.858763375e-05
0.04904166667,0.0001279625867
0.0490625,0.0001543832186
0.04908333333,0.0001555408817
0.04910416667,0.0001942064846
0.049125,0.0001938230125
0.04914583333,0.0002068659815
0.04916666667,0.0002492477361
0.0491875,0.0002170910593
0.04920833333,0.0002183546894
0.04922916667,0.0002269020333
0.04925,0.0002487498568
0.04927083333,0.0003216412442
0.04929166667,0.000342818792
0.0493125,0.0003891960951
0.04933333333,0.0003608209081
0.04935416667,0.0003534039133
0.049375,0.0003752998309
0.04939583333,0.0003856727853
0.04941666667,0.0003874095564
0.0494375,0.0004045624228
0.04945833333,0.0003987451491
0.04947916667,0.0004098768986
0.0495,0.0004037838662
0.04952083333,0.0004013217986
0.04954166667,0.0003692495229
0.0495625,0.0003703080292
0.04958333333,0.0003478059079
0.04960416667,0.000355582335
0.049625,0.0003672458697
0.04964583333,0.0003857306438
0.04966666667,0.0003678868234
0.0496875,0.0004248575424
0.04970833333,0.0004497686168
0.04972916667,0.0004814952263
0.04975,0.0004923553788
0.04977083333,0.0005065224832
0.04979166667,0.0005228571245
0.0498125,0.0005438019871
0.04983333333,0.0005090036429
0.04985416667,0.0005364391254
0.049875,0.0005155105027
0.04989583333,0.0005371731822
0.04991666667,0.0005104043521
0.0499375,0.0005023201229
0.04995833333,0.0004311800294
0.04997916667,0.0003959162277
0.05,0.0003600855998
0.05002083333,0.0004081732186
0.05004166667,0.0005125674652
0.0500625,0.0006101906765
0.05008333333,0.0006235355395
0.05010416667,0.0007526879781
0.050125,0.0008225459605
0.05014583333,0.0008540822309
0.05016666667,0.0009309705347
0.0501875,0.00106108794
0.05020833333,0.001141996356
0.05022916667,0.001245881314
0.05025,0.001238750876
0.05027083333,0.001343265176
0.05029166667,0.00134935684
0.0503125,0.001391364727
0.05033333333,0.001424322953
0.05035416667,0.001437816187
0.050375,0.001432184712
0.05039583333,0.001429951168
0.05041666667,0.00135204324
0.0504375,0.001335934619
0.05045833333,0.001251331647
0.05047916667,0.001215673052
0.0505,0.001160386833
0.05052083333,0.001162033877
0.05054166667,0.001143464702
0.0505625,0.001164648216
0.05058333333,0.00114817766
0.05060416667,0.001167206443
0.050625,0.001151443576
0.05064583333,0.001233722549
0.05066666667,0.001296786359
0.0506875,0.001377112814
0.05070833333,0.001406227238
0.05072916667,0.001440880937
0.05075,0.001476049423
0.05077083333,0.001532753464
0.05079166667,0.001588776126
0.0508125,0.001645519165
0.05083333333,0.001655017608
0.05085416667,0.001702798414
0.050875,0.001685167896
0.05089583333,0.001695980085
0.05091666667,0.001719935564
0.0509375,0.001733420417
0.05095833333,0.001786149922
0.05097916667,0.001867595827
0.051,0.001835707342
0.05102083333,0.001853527152
0.05104166667,0.001864086953
0.0510625,0.001870047534
0.05108333333,0.001918392372
0.05110416667,0.00197347207
0.051125,0.002023202367
0.05114583333,0.00209217309
0.05116666667,0.002112959512
0.0511875,0.002200264251
0.05120833333,0.002269648714
0.05122916667,0.002342040418
0.05125,0.002400224796
0.05127083333,0.002471006475
0.05129166667,0.00251348759
0.0513125,0.002564953174
0.05133333333,0.002612982178
0.05135416667,0.00268529309
0.051375,0.002772252075
0.05139583333,0.002831666498
0.05141666667,0.002870292636
0.0514375,0.002901715692
0.05145833333,0.002929825801
0.05147916667,0.002980890451
0.0515,0.002974364674
0.05152083333,0.002957499353
0.05154166667,0.002960355021
0.0515625,0.00296027353
0.05158333333,0.002958877245
0.05160416667,0.002979741897
0.051625,0.002940060338
0.05164583333,0.002873884747
0.05166666667,0.00282164244
0.0516875,0.002785042394
0.05170833333,0.00279780617
0.05172916667,0.002813369269
0.05175,0.002841617912
0.05177083333,0.002847045893
0.05179166667,0.002815853339
0.0518125,0.002796413843
0.05183333333,0.002775509609
0.05185416667,0.002765468089
0.051875,0.002771463711
0.05189583333,0.00278086192
0.05191666667,0.002795222215
0.0519375,0.002796169138
0.05195833333,0.002809045138
0.05197916667,0.002826092066
0.052,0.002855945844
0.05202083333,0.002874525264
0.05204166667,0.002915055724
0.0520625,0.002930290997
0.05208333333,0.002913895296
0.05210416667,0.002892371966
0.052125,0.002873870777
0.05214583333,0.002873965539
0.05216666667,0.002850518329
0.0521875,0.002854890656
0.05220833333,0.002817925997
0.05222916667,0.002827407327
0.05225,0.002832744736
0.05227083333,0.00279353885
0.05229166667,0.002799792448
0.0523125,0.002742962213
0.05233333333,0.002755776281
0.05235416667,0.002805351047
0.052375,0.002871519653
0.05239583333,0.002940197242
0.05241666667,0.003002431709
0.0524375,0.003052656539
0.05245833333,0.003108955687
0.05247916667,0.003184367204
0.0525,0.003272283822
0.05252083333,0.003321744269
0.05254166667,0.003350097686
0.0525625,0.003353131469
0.05258333333,0.003375439905
0.05260416667,0.003391052829
0.052625,0.003459383734
0.05264583333,0.003493441734
0.05266666667,0.003554065712
0.0526875,0.003601514501
0.05270833333,0.003656529123
0.05272916667,0.003744074376
0.05275,0.003839043435
0.05277083333,0.003953022417
0.05279166667,0.004047208
0.0528125,0.004068878014
0.05283333333,0.004079934675
0.05285416667,0.004049967509
0.052875,0.003990678117
0.05289583333,0.003965448588
0.05291666667,0.003972343169
0.0529375,0.003976778593
0.05295833333,0.003965753596
0.05297916667,0.003966465127
0.053,0.003976746928
0.05302083333,0.003976011183
0.05304166667,0.003982101567
0.0530625,0.004000604153
0.05308333333,0.004069967195
0.05310416667,0.004125407431
0.053125,0.004172794521
0.05314583333,0.004173364025
0.05316666667,0.004168674815
0.0531875,0.004126437474
0.05320833333,0.004094344564
0.05322916667,0.004097991157
0.05325,0.004131873604
0.05327083333,0.004169773776
0.05329166667,0.004182128236
0.0533125,0.004151216708
0.05333333333,0.004152737092
0.05335416667,0.004118670709
0.053375,0.004119391087
0.05339583333,0.004147450905
0.05341666667,0.004194779322
0.0534375,0.004203379154
0.05345833333,0.004212131258
0.05347916667,0.004208286293
0.0535,0.004202599172
0.05352083333,0.004216805566
0.05354166667,0.00422794139
0.0535625,0.00420357706
0.05358333333,0.00414753519
0.05360416667,0.004095809069
0.053625,0.004064012319
0.05364583333,0.004090076778
0.05366666667,0.00411375938
0.0536875,0.004129188601
0.05370833333,0.004152452108
0.05372916667,0.004114978947
0.05375,0.004071189091
0.05377083333,0.004004037008
0.05379166667,0.003947942052
0.0538125,0.003891516943
0.05383333333,0.003800893202
0.05385416667,0.003709457116
0.053875,0.003648053156
0.05389583333,0.003628958482
0.05391666667,0.003700636094
0.0539375,0.003795975354
0.05395833333,0.003885996761
0.05397916667,0.003981970251
0.054,0.004074546043
0.05402083333,0.004143494181
0.05404166667,0.00420840783
0.0540625,0.004253088962
0.05408333333,0.004311574157
0.05410416667,0.004359507933
0.054125,0.004344387911
0.05414583333,0.004329448566
0.05416666667,0.00431307219
0.0541875,0.00427982118
0.05420833333,0.004269697238
0.05422916667,0.004237966146
0.05425,0.004199875984
0.05427083333,0.004176721908
0.05429166667,0.004131823312
0.0543125,0.004096951336
0.05433333333,0.0040943739
0.05435416667,0.00411174586
0.054375,0.004150429275
0.05439583333,0.004183764104
0.05441666667,0.004204915836
0.0544375,0.004197397269
0.05445833333,0.004154243972
0.05447916667,0.00413756771
0.0545,0.004122995306
0.05452083333,0.00414647907
0.05454166667,0.004195544869
0.0545625,0.004273088649
0.05458333333,0.00430395687
0.05460416667,0.004338078201
0.054625,0.004336864222
0.05464583333,0.004379297607
0.05466666667,0.004445615225
0.0546875,0.004514299333
0.05470833333,0.004569788463
0.05472916667,0.004643240478
0.05475,0.004742504563
0.05477083333,0.004838570021
0.05479166667,0.004929377697
0.0548125,0.005024603568
0.05483333333,0.005112266168
0.05485416667,0.005173296202
0.054875,0.005231402814
0.05489583333,0.005308483262
0.05491666667,0.005347545259
0.0549375,0.005400706548
0.05495833333,0.005387918092
0.05497916667,0.005376714747
0.055,0.005380521063
0.05502083333,0.005384447984
0.05504166667,0.005383964162
0.0550625,0.005344728939
0.05508333333,0.005315596703
0.05510416667,0.005271614064
0.055125,0.005213590339
0.05514583333,0.00516314758
0.05516666667,0.005110702477
0.0551875,0.005075411405
0.05520833333,0.005032594316
0.05522916667,0.004995781928
0.05525,0.005000332836
0.05527083333,0.005019658245
0.05529166667,0.005023225676
0.0553125,0.005021544639
0.05533333333,0.004977033474
0.05535416667,0.004980081227
0.055375,0.004905672744
0.05539583333,0.00488096755
0.05541666667,0.004884082358
0.0554375,0.004892721307
0.05545833333,0.004895001184
0.05547916667,0.004865518305
0.0555,0.004838489927
0.05552083333,0.004828218371
0.05554166667,0.004829999525
0.0555625,0.004834832158
0.05558333333,0.004852678161
0.05560416667,0.004879491404
0.055625,0.004855950363
0.05564583333,0.004872233607
0.05566666667,0.004876261577
0.0556875,0.004913253244
0.05570833333,0.004946908914
0.05572916667,0.004956695717
0.05575,0.004961997271
0.05577083333,0.004957419354
0.05579166667,0.00491479272
0.0558125,0.004900236148
0.05583333333,0.004880935419
0.05585416667,0.004888907541
0.055875,0.004905806389
0.05589583333,0.004961148836
0.05591666667,0.00496735936
0.0559375,0.004979390651
0.05595833333,0.005000275094
0.05597916667,0.005025535822
0.056,0.005008363165
0.05602083333,0.004994753748
0.05604166667,0.004972151946
0.0560625,0.00498749176
0.05608333333,0.004971002694
0.05610416667,0.004961504135
0.056125,0.004927874077
0.05614583333,0.004914029036
0.05616666667,0.004886560608
0.0561875,0.004865291528
0.05620833333,0.004845299758
0.05622916667,0.004832776263
0.05625,0.004821003415
0.05627083333,0.004798354115
0.05629166667,0.004736354575
0.0563125,0.004702233244
0.05633333333,0.00462635234
0.05635416667,0.004600619897
0.056375,0.004561686423
0.05639583333,0.004550579935
0.05641666667,0.00455871271
0.0564375,0.004575576633
0.05645833333,0.004634248093
0.05647916667,0.004736782517
0.0565,0.00478714332
0.05652083333,0.004830670077
0.05654166667,0.004773058463
0.0565625,0.004722785205
0.05658333333,0.004657388665
0.05660416667,0.004648086149
0.056625,0.004623188172
0.05664583333,0.004603889305
0.05666666667,0.004569403362
0.0566875,0.004540941678
0.05670833333,0.004520169459
0.05672916667,0.004526946228
0.05675,0.004479428753
0.05677083333,0.004458672833
0.05679166667,0.004408315755
0.0568125,0.004346029367
0.05683333333,0.00424375385
0.05685416667,0.004178753123
0.056875,0.004118418787
0.05689583333,0.004109859932
0.05691666667,0.004101512488
0.0569375,0.004106382839
0.05695833333,0.004091488663
0.05697916667,0.004103231709
0.057,0.004089219496
0.05702083333,0.004106364213
0.05704166667,0.004068236332
0.0570625,0.004109892994
0.05708333333,0.004130209796
0.05710416667,0.004173853435
0.057125,0.004184630699
0.05714583333,0.004175249487
0.05716666667,0.004126085434
0.0571875,0.004078595899
0.05720833333,0.004026876297
0.05722916667,0.003979017958
0.05725,0.003964982461
0.05727083333,0.003976897802
0.05729166667,0.003991140984
0.0573125,0.004041570704
0.05733333333,0.004030981101
0.05735416667,0.004053580575
0.057375,0.004081263673
0.05739583333,0.004164440092
0.05741666667,0.004170522559
0.0574375,0.004115263
0.05745833333,0.004050500691
0.05747916667,0.004005415365
0.0575,0.003956458997
0.05752083333,0.003933842294
0.05754166667,0.003905546386
0.0575625,0.003902293742
0.05758333333,0.00387220853
0.05760416667,0.00383485062
0.057625,0.003830809379
0.05764583333,0.003836828517
0.05766666667,0.003799872007
0.0576875,0.003767728107
0.05770833333,0.003713915125
0.05772916667,0.003695669351
0.05775,0.003659714479
0.05777083333,0.003666058416
0.05779166667,0.003695968306
0.0578125,0.003762243781
0.05783333333,0.003816346871
0.05785416667,0.003900456708
0.057875,0.003906834871
0.05789583333,0.003943571355
0.05791666667,0.003965309821
0.0579375,0.003978562541
0.05795833333,0.003943864256
0.05797916667,0.003907972481
0.058,0.003847750602
0.05802083333,0.003788579255
0.05804166667,0.00375345815
0.0580625,0.003728423268
0.05808333333,0.003657199908
0.05810416667,0.003630292369
0.058125,0.00355657679
0.05814583333,0.00352417957
0.05816666667,0.003403295064
0.0581875,0.003312996589
0.05820833333,0.003225564258
0.05822916667,0.003140687244
0.05825,0.003103356808
0.05827083333,0.003038307652
0.05829166667,0.002992684022
0.0583125,0.00292800297
0.05833333333,0.002871281235
0.05835416667,0.00279733818
0.058375,0.002749702428
0.05839583333,0.002706620144
0.05841666667,0.002630066359
0.0584375,0.002586002694
0.05845833333,0.002498992253
0.05847916667,0.002456435002
0.0585,0.002391724382
0.05852083333,0.002358158352
0.05854166667,0.002310409909
0.0585625,0.00228036195
0.05858333333,0.002234848682
0.05860416667,0.002138762968
0.058625,0.002063249005
0.05864583333,0.002004268346
0.05866666667,0.001972717931
0.0586875,0.00197697035
0.05870833333,0.00196018978
0.05872916667,0.001957688015
0.05875,0.001932436018
0.05877083333,0.001937766676
0.05879166667,0.001938087284
0.0588125,0.001978551038
0.05883333333,0.001970636426
0.05885416667,0.001975796884
0.058875,0.001927545527
0.05889583333,0.001895547612
0.05891666667,0.001848025247
0.0589375,0.001803976949
0.05895833333,0.001746686641
0.05897916667,0.001662410912
0.059,0.001572407898
0.05902083333,0.001471637632
0.05904166667,0.001392368576
0.0590625,0.001348062535
0.05908333333,0.001321977354
0.05910416667,0.00129432953
0.059125,0.001240804209
0.05914583333,0.00122457312
0.05916666667,0.00122945453
0.0591875,0.001275317161
0.05920833333,0.001339138951
0.05922916667,0.001343115233
0.05925,0.00132117921
0.05927083333,0.001317766262
0.05929166667,0.001263868297
0.0593125,0.001337273745
0.05933333333,0.00139949203
0.05935416667,0.001398125663
0.059375,0.001391681959
0.05939583333,0.001327316975
0.05941666667,0.001278932672
0.0594375,0.001239305711
0.05945833333,0.001175830024
0.05947916667,0.001129471813
0.0595,0.001101382659
0.05952083333,0.001117591746
0.05954166667,0.001095401938
0.0595625,0.001103101531
0.05958333333,0.001041792566
0.05960416667,0.0009389077895
0.059625,0.000829933444
0.05964583333,0.0007341821911
0.05966666667,0.0006501858588
0.0596875,0.0006017111009
0.05970833333,0.0005666464567
0.05972916667,0.0005072393105
0.05975,0.0004587837611
0.05977083333,0.0003926857025
0.05979166667,0.000350559043
0.0598125,0.0002764978562
0.05983333333,0.0002334896999
0.05985416667,0.000172091648
0.059875,9.520708409e-05
0.05989583333,6.032465171e-05
0.05991666667,1.583373523e-05
0.0599375,-3.462044697e-05
0.05995833333,-7.765875489e-05
0.05997916667,-0.0001258435077
0.06,-0.0001460126368
0.06002083333,-0.0002198266156
0.06004166667,-0.00027124997
0.0600625,-0.0003700547677
0.06008333333,-0.000438997813
0.06010416667,-0.000484425138
0.060125,-0.0005107710022
0.06014583333,-0.0004595422943
0.06016666667,-0.0004585011629
0.0601875,-0.0004544478434
0.06020833333,-0.0004835167201
0.06022916667,-0.0005692134146
0.06025,-0.0005810849252
0.06027083333,-0.0006554611027
0.06029166667,-0.0006641785731
0.0603125,-0.0007068659179
0.06033333333,-0.0006945183268
0.06035416667,-0.0007159048691
0.060375,-0.0007113597239
0.06039583333,-0.0007456251769
0.06041666667,-0.0007595529896
0.0604375,-0.0007737592678
0.06045833333,-0.0008043945418
0.06047916667,-0.0008570833597
0.0605,-0.0009460133151
0.06052083333,-0.001066531055
0.06054166667,-0.001177026075
0.0605625,-0.001292935805
0.06058333333,-0.001336262212
0.06060416667,-0.001385436044
0.060625,-0.001408458687
0.06064583333,-0.001428154996
0.06066666667,-0.001468248433
0.0606875,-0.001528461347
0.06070833333,-0.001582170837
0.06072916667,-0.001668763231
0.06075,-0.00172510522
0.06077083333,-0.001775281853
0.06079166667,-0.001814858872
0.0608125,-0.001884061727
0.06083333333,-0.001975466032
0.06085416667,-0.002082202351
0.060875,-0.002183931181
0.06089583333,-0.002303943969
0.06091666667,-0.002374637406
0.0609375,-0.002474006265
0.06095833333,-0.002545789117
0.06097916667,-0.002669981681
0.061,-0.002755774185
0.06102083333,-0.002818734618
0.06104166667,-0.002882121131
0.0610625,-0.002966149477
0.06108333333,-0.003045292804
0.06110416667,-0.003159768647
0.061125,-0.00323086651
0.06114583333,-0.003249529051
0.06116666667,-0.003283251077
0.0611875,-0.003311134642
0.06120833333,-0.00333651132
0.06122916667,-0.003386005061
0.06125,-0.003440235043
0.06127083333,-0.003496460849
0.06129166667,-0.003587153275
0.0613125,-0.003674464999
0.06133333333,-0.003763670102
0.06135416667,-0.003839580575
0.061375,-0.003914715722
0.06139583333,-0.004025359172
0.06141666667,-0.004072614014
0.0614375,-0.00409414107
0.06145833333,-0.004066399764
0.06147916667,-0.004035028629
0.0615,-0.004015778657
0.06152083333,-0.003989635501
0.06154166667,-0.003995734267
0.0615625,-0.004013454542
0.06158333333,-0.004018266685
0.06160416667,-0.004053980112
0.061625,-0.004094895907
0.06164583333,-0.004126328044
0.06166666667,-0.004180053249
0.0616875,-0.004202662501
0.06170833333,-0.004198234063
0.06172916667,-0.00416388642
0.06175,-0.004144146573
0.06177083333,-0.004172922578
0.06179166667,-0.004201188684
0.0618125,-0.004244150594
0.06183333333,-0.00426765997
0.06185416667,-0.004296461586
0.061875,-0.004303940572
0.06189583333,-0.004265032709
0.06191666667,-0.004206989426
0.0619375,-0.00417886721
0.06195833333,-0.004162158351
0.06197916667,-0.004157517571
0.062,-0.004154254682
0.06202083333,-0.004140714649
0.06204166667,-0.004164731596
0.0620625,-0.004185158294
0.06208333333,-0.004227921832
0.06210416667,-0.004313632846
0.062125,-0.004356288817
0.06214583333,-0.004404814448
0.06216666667,-0.004436763469
0.0621875,-0.004427667707
0.06220833333,-0.004415452946
0.06222916667,-0.00438843295
0.06225,-0.004381125327
0.06227083333,-0.004359156825
0.06229166667,-0.004334507044
0.0623125,-0.004342892673
0.06233333333,-0.004336390179
0.06235416667,-0.004351480864
0.062375,-0.004378058948
0.06239583333,-0.004415169358
0.06241666667,-0.004455874208
0.0624375,-0.004488899373
0.06245833333,-0.004501147196
0.06247916667,-0.004479826428
0.0625,-0.004464490805
0.06252083333,-0.004451929592
0.06254166667,-0.004454519134
0.0625625,-0.004489935469
0.06258333333,-0.004507232457
0.06260416667,-0.004492460284
0.062625,-0.004460606258
0.06264583333,-0.004469697364
0.06266666667,-0.004475791473
0.0626875,-0.00448819343
0.06270833333,-0.004483918194
0.06272916667,-0.004472704139
0.06275,-0.004476700909
0.06277083333,-0.004469530191
0.06279166667,-0.00444516493
0.0628125,-0.004432982299
0.06283333333,-0.004434301518
0.06285416667,-0.004466400947
0.062875,-0.004501249176
0.06289583333,-0.004583157599
0.06291666667,-0.004647305235
0.0629375,-0.004700697493
0.06295833333,-0.004715149757
0.06297916667,-0.004743464757
0.063,-0.004772371147
0.06302083333,-0.004807686899
0.06304166667,-0.004812235478
0.0630625,-0.004804058466
0.06308333333,-0.004811491817
0.06310416667,-0.004791876767
0.063125,-0.004830928985
0.06314583333,-0.004857100546
0.06316666667,-0.00489142444
0.0631875,-0.004898336716
0.06320833333,-0.004888538737
0.06322916667,-0.004887147341
0.06325,-0.004858594388
0.06327083333,-0.004856030457
0.06329166667,-0.004864404444
0.0633125,-0.00488114357
0.06333333333,-0.004915305879
0.06335416667,-0.004961958155
0.063375,-0.005002361257
0.06339583333,-0.005026466213
0.06341666667,-0.005040439777
0.0634375,-0.005047635175
0.06345833333,-0.005086787045
0.06347916667,-0.005106695928
0.0635,-0.00510531757
0.06352083333,-0.005103245378
0.06354166667,-0.005124791525
0.0635625,-0.005167272873
0.06358333333,-0.005229292437
0.06360416667,-0.005302793346
0.063625,-0.005346184131
0.06364583333,-0.005356454756
0.06366666667,-0.005362121388
0.0636875,-0.005382120144
0.06370833333,-0.005406270269
0.06372916667,-0.005445282906
0.06375,-0.00548150856
0.06377083333,-0.005505730398
0.06379166667,-0.005533566233
0.0638125,-0.005540397018
0.06383333333,-0.00555621041
0.06385416667,-0.005562439095
0.063875,-0.005561227445
0.06389583333,-0.005562434439
0.06391666667,-0.005595491733
0.0639375,-0.005650148261
0.06395833333,-0.005677345209
0.06397916667,-0.005697408225
0.064,-0.005679161754
0.06402083333,-0.005668324418
0.06404166667,-0.005641692784
0.0640625,-0.00563833816
0.06408333333,-0.005644109566
0.06410416667,-0.005654148292
0.064125,-0.005644129589
0.06414583333,-0.005609541666
0.06416666667,-0.005576049909
0.0641875,-0.005591952708
0.06420833333,-0.005639342591
0.06422916667,-0.005709799938
0.06425,-0.005779806059
0.06427083333,-0.005796923302
0.06429166667,-0.005821495783
0.0643125,-0.005826952867
0.06433333333,-0.005869129673
0.06435416667,-0.005882010795
0.064375,-0.005890671629
0.06439583333,-0.005915640388
0.06441666667,-0.005920603871
0.0644375,-0.005971057341
0.06445833333,-0.006030316465
0.06447916667,-0.006089688279
0.0645,-0.006098781712
0.06452083333,-0.006104351953
0.06454166667,-0.006090669427
0.0645625,-0.006122439168
0.06458333333,-0.006143757608
0.06460416667,-0.006192269269
0.064625,-0.006227375939
0.06464583333,-0.006246390287
0.06466666667,-0.006257999223
0.0646875,-0.006240648217
0.06470833333,-0.006209086627
0.06472916667,-0.006203405093
0.06475,-0.006214908324
0.06477083333,-0.006253723055
0.06479166667,-0.006272878032
0.0648125,-0.006297443993
0.06483333333,-0.006321379915
0.06485416667,-0.006362714339
0.064875,-0.006407768931
0.06489583333,-0.006472774781
0.06491666667,-0.00649378635
0.0649375,-0.006527221762
0.06495833333,-0.006522603333
0.06497916667,-0.006566850469
0.065,-0.006623622961
0.06502083333,-0.006656247191
0.06504166667,-0.006685309578
0.0650625,-0.006682682782
0.06508333333,-0.006686338689
0.06510416667,-0.006698858924
0.065125,-0.00671561202
0.06514583333,-0.006731639616
0.06516666667,-0.006667798851
0.0651875,-0.006640763022
0.06520833333,-0.00661643967
0.06522916667,-0.006554891821
0.06525,-0.006484074518
0.06527083333,-0.006430332083
0.06529166667,-0.006393295713
0.0653125,-0.006359269377
0.06533333333,-0.00633910438
0.06535416667,-0.006335347891
0.065375,-0.006331913173
0.06539583333,-0.006344090216
0.06541666667,-0.006372495554
0.0654375,-0.006374053657
0.06545833333,-0.006383137777
0.06547916667,-0.006340356544
0.0655,-0.006279987749
0.06552083333,-0.006232757587
0.06554166667,-0.006157232914
0.0655625,-0.006142865401
0.06558333333,-0.006114496384
0.06560416667,-0.00609070668
0.065625,-0.006067686714
0.06564583333,-0.006061435677
0.06566666667,-0.006058187224
0.0656875,-0.006087114103
0.06570833333,-0.006105560344
0.06572916667,-0.006114178337
0.06575,-0.006082001142
0.06577083333,-0.00608004583
0.06579166667,-0.006070996635
0.0658125,-0.006073364522
0.06583333333,-0.006073180586
0.06585416667,-0.006083506625
0.065875,-0.006104119588
0.06589583333,-0.006148984656
0.06591666667,-0.006183525082
0.0659375,-0.006227451377
0.06595833333,-0.006234198343
0.06597916667,-0.006281387527
0.066,-0.006287015043
0.06602083333,-0.006287388504
0.06604166667,-0.006259922404
0.0660625,-0.006233046297
0.06608333333,-0.006206693593
0.06610416667,-0.006227965467
0.066125,-0.006256350316
0.06614583333,-0.006306790747
0.06616666667,-0.006322097499
0.0661875,-0.006340396125
0.06620833333,-0.006347499788
0.06622916667,-0.00637109112
0.06625,-0.006409968715
0.06627083333,-0.006446618587
0.06629166667,-0.006477638613
0.0663125,-0.006519284099
0.06633333333,-0.006512679625
0.06635416667,-0.006545320619
0.066375,-0.006560501643
0.06639583333,-0.006601065397
0.06641666667,-0.006594464183
0.0664375,-0.00658709975
0.06645833333,-0.006579530891
0.06647916667,-0.006567695178
0.0665,-0.006544025149
0.06652083333,-0.006572869606
0.06654166667,-0.006573035847
0.0665625,-0.006583661772
0.06658333333,-0.00657021394
0.06660416667,-0.006577413995
0.066625,-0.006580235437
0.06664583333,-0.006594172679
0.06666666667,-0.006623868365
0.0666875,-0.006649470422
0.06670833333,-0.006672564428
0.06672916667,-0.006706763059
0.06675,-0.006684936583
0.06677083333,-0.006681281608
0.06679166667,-0.006645010784
0.0668125,-0.006646279711
0.06683333333,-0.006598614156
0.06685416667,-0.006583601702
0.066875,-0.006564676296
0.06689583333,-0.006562215742
0.06691666667,-0.006559626665
0.0669375,-0.006562631112
0.06695833333,-0.006541101728
0.06697916667,-0.006553539075
0.067,-0.006519998889
0.06702083333,-0.006490768399
0.06704166667,-0.00645539863
0.0670625,-0.00642677024
0.06708333333,-0.006401421037
0.06710416667,-0.006383083295
0.067125,-0.006323004141
0.06714583333,-0.006300698966
0.06716666667,-0.006221131887
0.0671875,-0.006192171481
0.06720833333,-0.006102182902
0.06722916667,-0.006025137845
0.06725,-0.005945494398
0.06727083333,-0.005848332308
0.06729166667,-0.005783008412
0.0673125,-0.005716345273
0.06733333333,-0.005616807379
0.06735416667,-0.005534888711
0.067375,-0.00544007076
0.06739583333,-0.005416141823
0.06741666667,-0.005351803266
0.0674375,-0.005334199872
0.06745833333,-0.005295735784
0.06747916667,-0.005285099149
0.0675,-0.005292560905
0.06752083333,-0.005285182968
0.06754166667,-0.005288399756
0.0675625,-0.005258147605
0.06758333333,-0.005226648413
0.06760416667,-0.005181444343
0.067625,-0.005077265669
0.06764583333,-0.005032686051
0.06766666667,-0.004942451138
0.0676875,-0.00491509214
0.06770833333,-0.004861573689
0.06772916667,-0.00481832074
0.06775,-0.004748426843
0.06777083333,-0.004705125932
0.06779166667,-0.004660315346
0.0678125,-0.004624175373
0.06783333333,-0.004580690991
0.06785416667,-0.004560629837
0.067875,-0.004547184799
0.06789583333,-0.004558379762
0.06791666667,-0.004527213052
0.0679375,-0.004495533183
0.06795833333,-0.004423844162
0.06797916667,-0.004414270166
0.068,-0.004348578863
0.06802083333,-0.004308507778
0.06804166667,-0.0042248643
0.0680625,-0.004163144156
0.06808333333,-0.004104647785
0.06810416667,-0.004078655038
0.068125,-0.004038705025
0.06814583333,-0.004004167859
0.06816666667,-0.003928991035
0.0681875,-0.003886288032
0.06820833333,-0.00381980394
0.06822916667,-0.003783893306
0.06825,-0.003747568931
0.06827083333,-0.003695409279
0.06829166667,-0.003594961483
0.0683125,-0.003493632423
0.06833333333,-0.003381774295
0.06835416667,-0.003313411027
0.068375,-0.003227896988
0.06839583333,-0.003177606734
0.06841666667,-0.003101680195
0.0684375,-0.003057631897
0.06845833333,-0.002975984942
0.06847916667,-0.002916420111
0.0685,-0.002826700453
0.06852083333,-0.002753451699
0.06854166667,-0.002662574872
0.0685625,-0.002594105434
0.06858333333,-0.002523803152
0.06860416667,-0.002446339
0.068625,-0.002344317269
0.06864583333,-0.002262409544
0.06866666667,-0.002134276787
0.0686875,-0.002062869258
0.06870833333,-0.001956092194
0.06872916667,-0.001870260108
0.06875,-0.001787206973
0.06877083333,-0.001732775476
0.06879166667,-0.001635279274
0.0688125,-0.00156667456
0.06883333333,-0.001466582762
0.06885416667,-0.001389842713
0.068875,-0.001289247768
0.06889583333,-0.001214706805
0.06891666667,-0.001098896842
0.0689375,-0.001016302733
0.06895833333,-0.0009091602406
0.06897916667,-0.0008417522768
0.069,-0.0007646243321
0.06902083333,-0.000720831973
0.06904166667,-0.000653475523
0.0690625,-0.0005973342923
0.06908333333,-0.000515475811
0.06910416667,-0.0004786234931
0.069125,-0.0004091832088
0.06914583333,-0.000412111287
0.06916666667,-0.0003537790035
0.0691875,-0.0003600987839
0.06920833333,-0.0002925111621
0.06922916667,-0.0002786304103
0.06925,-0.0002079076949
0.06927083333,-0.0001779144804
0.06929166667,-9.81974008e-05
0.0693125,-6.577145541e-05
0.06933333333,-4.471722059e-05
0.06935416667,1.532715396e-05
0.069375,0.0001065476972
0.06939583333,0.0001894880843
0.06941666667,0.0002181947057
0.0694375,0.0002675097494
0.06945833333,0.0003610804852
0.06947916667,0.0004318954889
0.0695,0.0005373645108
0.06952083333,0.0005786542315
0.06954166667,0.0006625986425
0.0695625,0.0007192806806
0.06958333333,0.0008093352662
0.06960416667,0.0008627033676
0.069625,0.0009485838818
0.06964583333,0.0009976128349
0.06966666667,0.001066700788
0.0696875,0.001084075077
0.06970833333,0.001098720357
0.06972916667,0.001123737427
0.06975,0.001181678846
0.06977083333,0.001209504902
0.06979166667,0.001274307724
0.0698125,0.001279731281
0.06983333333,0.001321616815
0.06985416667,0.001321185613
0.069875,0.001366689103
0.06989583333,0.001389741781
0.06991666667,0.001432684367
0.0699375,0.001489301561
0.06995833333,0.00154003012
0.06997916667,0.001565954648
0.07,0.001632636995
0.07002083333,0.001647260622
0.07004166667,0.001713885576
0.0700625,0.001753673656
0.07008333333,0.001823782921
0.07010416667,0.001870803535
0.070125,0.001917599933
0.07014583333,0.00198265072
0.07016666667,0.002079191152
0.0701875,0.00214568153
0.07020833333,0.002246355638
0.07022916667,0.002292405814
0.07025,0.002368261572
0.07027083333,0.002423826605
0.07029166667,0.002486346755
0.0703125,0.002539668465
0.07033333333,0.002579909982
0.07035416667,0.002616201527
0.070375,0.002679515397
0.07039583333,0.002660935279
0.07041666667,0.002730457345
0.0704375,0.002763661556
0.07045833333,0.002753163222
0.07047916667,0.002772111213
0.0705,0.002801182447
0.07052083333,0.002842424903
0.07054166667,0.002873511752
0.0705625,0.00286799809
0.07058333333,0.002914681798
0.07060416667,0.002931666095
0.070625,0.002996218856
0.07064583333,0.003053529421
0.07066666667,0.003105547279
0.0706875,0.003157289466
0.07070833333,0.003199732397
0.07072916667,0.003245639848
0.07075,0.003306852886
0.07077083333,0.003360985778
0.07079166667,0.00343881594
0.0708125,0.003494840348
0.07083333333,0.003590216162
0.07085416667,0.003659548471
0.070875,0.003747052047
0.07089583333,0.003850962967
0.07091666667,0.00394812366
0.0709375,0.004051733296
0.07095833333,0.004151437432
0.07097916667,0.004240909126
0.071,0.004358135164
0.07102083333,0.004480079748
0.07104166667,0.004554993473
0.0710625,0.004638157785
0.07108333333,0.004697272088
0.07110416667,0.004777093418
0.071125,0.00487132743
0.07114583333,0.004934628028
0.07116666667,0.004991275258
0.0711875,0.005047891289
0.07120833333,0.005098577589
0.07122916667,0.005143188871
0.07125,0.005197992548
0.07127083333,0.005274405703
0.07129166667,0.005352844018
0.0713125,0.005419089925
0.07133333333,0.005473278929
0.07135416667,0.00551260449
0.071375,0.005548569839
0.07139583333,0.005606177729
0.07141666667,0.005667345133
0.0714375,0.005694628228
0.07145833333,0.005709632766
0.07147916667,0.005724625196
0.0715,0.005756536964
0.07152083333,0.005821218248
0.07154166667,0.005849318579
0.0715625,0.005888152402
0.07158333333,0.005892467685
0.07160416667,0.005918140057
0.071625,0.005934556946
0.07164583333,0.005942840595
0.07166666667,0.005951135885
0.0716875,0.005958025344
0.07170833333,0.00598161621
0.07172916667,0.005971455947
0.07175,0.005980932619
0.07177083333,0.005997764878
0.07179166667,0.006026473362
0.0718125,0.006041551009
0.07183333333,0.006072972901
0.07185416667,0.00608321093
0.071875,0.006104037631
0.07189583333,0.006124050356
0.07191666667,0.006126828957
0.0719375,0.006154695991
0.07195833333,0.006161177531
0.07197916667,0.006177716423
0.072,0.006163948216
0.07202083333,0.006153593771
0.07204166667,0.006144892424
0.0720625,0.006130923983
0.07208333333,0.006113838404
0.07210416667,0.006123085972
0.072125,0.006128828973
0.07214583333,0.006149196997
0.07216666667,0.006188695785
0.0721875,0.006233037915
0.07220833333,0.006286757067
0.07222916667,0.006317837629
0.07225,0.006353390869
0.07227083333,0.006383237429
0.07229166667,0.006418228149
0.0723125,0.006453345064
0.07233333333,0.006494461093
0.07235416667,0.006518457551
0.072375,0.006543400232
0.07239583333,0.006589677185
0.07241666667,0.00660425378
0.0724375,0.006618906744
0.07245833333,0.006605955772
0.07247916667,0.006619802676
0.0725,0.006641105749
0.07252083333,0.006678622216
0.07254166667,0.006714212243
0.0725625,0.006750240456
0.07258333333,0.00677506486
0.07260416667,0.00680894265
0.072625,0.006848627236
0.07264583333,0.006894208957
0.07266666667,0.006924133282
0.0726875,0.00697230082
0.07270833333,0.007020467427
0.07272916667,0.007093005814
0.07275,0.007166341878
0.07277083333,0.007219278254
0.07279166667,0.007262626197
0.0728125,0.007280269172
0.07283333333,0.007318073418
0.07285416667,0.007359577343
0.072875,0.007388118189
0.07289583333,0.007426034659
0.07291666667,0.007479770575
0.0729375,0.007531383075
0.07295833333,0.007579993457
0.07297916667,0.007634489797
0.073,0.007675474975
0.07302083333,0.007738668937
0.07304166667,0.007756186184
0.0730625,0.007797313388
0.07308333333,0.007826892659
0.07310416667,0.007835831493
0.073125,0.0078465119
0.07314583333,0.007849287242
0.07316666667,0.007861500606
0.0731875,0.007870567963
0.07320833333,0.007876494899
0.07322916667,0.007914659567
0.07325,0.007930084132
0.07327083333,0.00797054451
0.07329166667,0.007983509451
0.0733125,0.008007896133
0.07333333333,0.008025038056
0.07335416667,0.008069620468
0.073375,0.008105910383
0.07339583333,0.008115886711
0.07341666667,0.008120544255
0.0734375,0.008117433637
0.07345833333,0.008109762333
0.07347916667,0.008117496967
0.0735,0.008106496185
0.07352083333,0.008090179414
0.07354166667,0.0080816634
0.0735625,0.008097285405
0.07358333333,0.008087823167
0.07360416667,0.008101166226
0.073625,0.00809871126
0.07364583333,0.00809539482
0.07366666667,0.008081780747
0.0736875,0.00808629673
0.07370833333,0.008065881208
0.07372916667,0.008066683076
0.07375,0.008050182834
0.07377083333,0.008032698184
0.07379166667,0.00799466297
0.0738125,0.007970991544
0.07383333333,0.007938447408
0.07385416667,0.007916655391
0.073875,0.007886896841
0.07389583333,0.007875155658
0.07391666667,0.007844900712
0.0739375,0.007824211381
0.07395833333,0.007799254265
0.07397916667,0.00779206166
0.074,0.007804006804
0.07402083333,0.007787260227
0.07404166667,0.007771037519
0.0740625,0.007750690915
0.07408333333,0.007710819133
0.07410416667,0.007676918991
0.074125,0.007629304659
0.07414583333,0.007601687685
0.07416666667,0.007556294557
0.0741875,0.007521338761
0.07420833333,0.007489021402
0.07422916667,0.007472814526
0.07425,0.007456749212
0.07427083333,0.007446859032
0.07429166667,0.007426133379
0.0743125,0.0074156872
0.07433333333,0.007397648413
0.07435416667,0.007382793352
0.074375,0.007363495883
0.07439583333,0.007358069532
0.07441666667,0.00733147515
0.0744375,0.007316072471
0.07445833333,0.007280615624
0.07447916667,0.007247203961
0.0745,0.007195576094
0.07452083333,0.007146918215
0.07454166667,0.00710270321
0.0745625,0.007088526618
0.07458333333,0.00708558131
0.07460416667,0.007089053746
0.074625,0.007072927896
0.07464583333,0.007073077839
0.07466666667,0.007056499831
0.0746875,0.007044280414
0.07470833333,0.007041361649
0.07472916667,0.007058488205
0.07475,0.007073519286
0.07477083333,0.007106435485
0.07479166667,0.00710442476
0.0748125,0.007107639685
0.07483333333,0.007099173032
0.07485416667,0.007110302802
0.074875,0.00710834004
0.07489583333,0.007136297412
0.07491666667,0.007132493891
0.0749375,0.007147334516
0.07495833333,0.007120190188
0.07497916667,0.007117539179
0.075,0.007102441974
0.07502083333,0.007099241018
0.07504166667,0.007095307577
0.0750625,0.007105172146
0.07508333333,0.00709215831
0.07510416667,0.007102919277
0.075125,0.00708101131
0.07514583333,0.00708794361
0.07516666667,0.007076928858
0.0751875,0.007096838206
0.07520833333,0.007082571276
0.07522916667,0.007073530927
0.07525,0.007059455384
0.07527083333,0.007050837856
0.07529166667,0.0070329546
0.0753125,0.007040682714
0.07533333333,0.006995781325
0.07535416667,0.006964066066
0.075375,0.006918727886
0.07539583333,0.006918265484
0.07541666667,0.006892012432
0.0754375,0.006895365193
0.07545833333,0.006864808965
0.07547916667,0.006864339113
0.0755,0.006844284944
0.07552083333,0.00683200825
0.07554166667,0.006831300911
0.0755625,0.006829150021
0.07558333333,0.006819591392
0.07560416667,0.006816166919
0.075625,0.006809977349
0.07564583333,0.006800435018
0.07566666667,0.006775929593
0.0756875,0.006771428511
0.07570833333,0.006740472279
0.07572916667,0.006748908199
0.07575,0.006724816281
0.07577083333,0.006744550541
0.07579166667,0.006737776101
0.0758125,0.006755857263
0.07583333333,0.006765016355
0.07585416667,0.00676455209
0.075875,0.006766600069
0.07589583333,0.006788427476
0.07591666667,0.006798818707
0.0759375,0.006832913496
0.07595833333,0.006817507092
0.07597916667,0.006805875339
0.076,0.006797249429
0.07602083333,0.006788512692
0.07604166667,0.006788147613
0.0760625,0.006787252612
0.07608333333,0.006799714174
0.07610416667,0.006810951512
0.076125,0.006824029144
0.07614583333,0.006851934828
0.07616666667,0.006869049743
0.0761875,0.006885106675
0.07620833333,0.006884806324
0.07622916667,0.006894955877
0.07625,0.006900813431
0.07627083333,0.006882910617
0.07629166667,0.006865899079
0.0763125,0.006857204251
0.07633333333,0.00683303969
0.07635416667,0.006822481286
0.076375,0.006784893572
0.07639583333,0.006786085665
0.07641666667,0.006751460023
0.0764375,0.006734040566
0.07645833333,0.006720404606
0.07647916667,0.00671312958
0.0765,0.006714022718
0.07652083333,0.006708413828
0.07654166667,0.006698663346
0.0765625,0.00667823758
0.07658333333,0.006657706574
0.07660416667,0.0066520283
0.076625,0.006645767018
0.07664583333,0.006609631702
0.07666666667,0.006566250231
0.0766875,0.006538055371
0.07670833333,0.006506788079
0.07672916667,0.006491040345
0.07675,0.006465377286
0.07677083333,0.006422026549
0.07679166667,0.006388348062
0.0768125,0.006355915219
0.07683333333,0.006349208299
0.07685416667,0.00632586889
0.076875,0.006302721798
0.07689583333,0.006270447746
0.07691666667,0.006250968669
0.0769375,0.006221402436
0.07695833333,0.006173628848
0.07697916667,0.006120373495
0.077,0.006078558043
0.07702083333,0.006039368454
0.07704166667,0.005996325053
0.0770625,0.00596141303
0.07708333333,0.005940237083
0.07710416667,0.005892416462
0.077125,0.005864195991
0.07714583333,0.005807547364
0.07716666667,0.005761413369
0.0771875,0.005698389374
0.07720833333,0.005643010139
0.07722916667,0.005575858988
0.07725,0.00553689152
0.07727083333,0.005482727662
0.07729166667,0.005451595411
0.0773125,0.005383662879
0.07733333333,0.005342802964
0.07735416667,0.005289519206
0.077375,0.005258316174
0.07739583333,0.005222484004
0.07741666667,0.005189941265
0.0774375,0.005153959151
0.07745833333,0.005109991413
0.07747916667,0.005054877605
0.0775,0.005011072382
0.07752083333,0.004947246518
0.07754166667,0.004907285329
0.0775625,0.004851450212
0.07758333333,0.004817212932
0.07760416667,0.004753693007
0.077625,0.004709539935
0.07764583333,0.004669893533
0.07766666667,0.004639077
0.0776875,0.004610627424
0.07770833333,0.00457328558
0.07772916667,0.00452131778
0.07775,0.004505894613
0.07777083333,0.004464752506
0.07779166667,0.004444069229
0.0778125,0.004396832548
0.07783333333,0.004354450852
0.07785416667,0.004308535717
0.077875,0.004274152219
0.07789583333,0.004230871331
0.07791666667,0.004195601214
0.0779375,0.004160050768
0.07795833333,0.004127912223
0.07797916667,0.004105727188
0.078,0.004080816638
0.07802083333,0.004051746335
0.07804166667,0.004017430823
0.0780625,0.003957664594
0.07808333333,0.003925286233
0.07810416667,0.003853410017
0.078125,0.003811854403
0.07814583333,0.003733309917
0.07816666667,0.003695525695
0.0781875,0.003637055634
0.07820833333,0.003576672403
0.07822916667,0.003513193689
0.07825,0.003455854487
0.07827083333,0.003388395533
0.07829166667,0.003318365663
0.0783125,0.003239782527
0.07833333333,0.003195450176
0.07835416667,0.003138388507
0.078375,0.003104252508
0.07839583333,0.003077272093
0.07841666667,0.003060800722
0.0784375,0.00302008586
0.07845833333,0.002961168066
0.07847916667,0.002901961794
0.0785,0.002851351863
0.07852083333,0.00279942574
0.07854166667,0.002766579157
0.0785625,0.002717463765
0.07858333333,0.002656688681
0.07860416667,0.002593880519
0.078625,0.002531475853
0.07864583333,0.002445920138
0.07866666667,0.002398823155
0.0786875,0.002309920732
0.07870833333,0.002265007235
0.07872916667,0.002206028439
0.07875,0.002141293604
0.07877083333,0.002125626896
0.07879166667,0.002047437709
0.0788125,0.001975950086
0.07883333333,0.001888612285
0.07885416667,0.001811038004
0.078875,0.001769475988
0.07889583333,0.001695746789
0.07891666667,0.00163641898
0.0789375,0.001559811411
0.07895833333,0.001470175339
0.07897916667,0.001394771622
0.079,0.001299886266
0.07902083333,0.001224728883
0.07904166667,0.001123534283
0.0790625,0.001043480588
0.07908333333,0.0009663070668
0.07910416667,0.0008937774692
0.079125,0.0008263373747
0.07914583333,0.0007613980561
0.07916666667,0.0006871937658
0.0791875,0.0006070103263
0.07920833333,0.0005146963522
0.07922916667,0.0004403036728
0.07925,0.0003374902299
0.07927083333,0.0002643305343
0.07929166667,0.0001734435209
0.0793125,0.0001060027571
0.07933333333,2.223323099e-05
0.07935416667,-2.454087371e-05
0.079375,-0.0001020125928
0.07939583333,-0.0001320207666
0.07941666667,-0.0002096855897
0.0794375,-0.0002658336598
0.07945833333,-0.0003302952391
0.07947916667,-0.0003633656888
0.0795,-0.0004098458739
0.07952083333,-0.0004464524682
0.07954166667,-0.000497295754
0.0795625,-0.0005282809725
0.07958333333,-0.000575884711
0.07960416667,-0.0006091388641
0.079625,-0.0006779279793
0.07964583333,-0.0006891051307
0.07966666667,-0.0007117732894
0.0796875,-0.0007147644646
0.07970833333,-0.0007273561787
0.07972916667,-0.0007359000156
0.07975,-0.0007640834083
0.07977083333,-0.0007297530537
0.07979166667,-0.0007655092049
0.0798125,-0.0007680457202
0.07983333333,-0.0008416117635
0.07985416667,-0.0008690881077
0.079875,-0.0009295871714
0.07989583333,-0.0009854433592
0.07991666667,-0.001061395975
0.0799375,-0.001103861956
0.07995833333,-0.001166850212
0.07997916667,-0.001202724758
0.08,-0.001271778485
0.08002083333,-0.001310676918
0.08004166667,-0.001379822614
0.0800625,-0.001436004299
0.08008333333,-0.001501475577
0.08010416667,-0.001553478767
0.080125,-0.001630017534
0.08014583333,-0.001666488475
0.08016666667,-0.001728490577
0.0801875,-0.001756539918
0.08020833333,-0.001825392828
0.08022916667,-0.001852872199
0.08025,-0.001921575167
0.08027083333,-0.001938445843
0.08029166667,-0.001980086323
0.0803125,-0.001987600001
0.08033333333,-0.002016107086
0.08035416667,-0.001998344436
0.080375,-0.002032370539
0.08039583333,-0.002031548414
0.08041666667,-0.002080194419
0.0804375,-0.002059089253
0.08045833333,-0.00207858556
0.08047916667,-0.002065793145
0.0805,-0.002069688169
0.08052083333,-0.002090878785
0.08054166667,-0.002131915651
0.0805625,-0.00217592367
0.08058333333,-0.002236596309
0.08060416667,-0.002282845555
0.080625,-0.002338062041
0.08064583333,-0.002349580172
0.08066666667,-0.002421987941
0.0806875,-0.002438068157
0.08070833333,-0.002513288287
0.08072916667,-0.002590847434
0.08075,-0.002656011609
0.08077083333,-0.00274908659
0.08079166667,-0.002813020721
0.0808125,-0.002903472167
0.08083333333,-0.002946924418
0.08085416667,-0.002998229349
0.080875,-0.003067987971
0.08089583333,-0.003102204297
0.08091666667,-0.003179199062
0.0809375,-0.003202652326
0.08095833333,-0.003247958841
0.08097916667,-0.003267365042
0.081,-0.003291832982
0.08102083333,-0.003305564402
0.08104166667,-0.003322173608
0.0810625,-0.003353385255
0.08108333333,-0.003422929673
0.08110416667,-0.003479673527
0.081125,-0.003553161398
0.08114583333,-0.003617773065
0.08116666667,-0.003677072003
0.0811875,-0.003752452554
0.08120833333,-0.003816425567
0.08122916667,-0.003854581388
0.08125,-0.003884502919
0.08127083333,-0.003907534294
0.08129166667,-0.003946827259
0.0813125,-0.003974549007
0.08133333333,-0.004020628985
0.08135416667,-0.004049854819
0.081375,-0.004086025525
0.08139583333,-0.004125854466
0.08141666667,-0.004167550709
0.0814375,-0.004214814864
0.08145833333,-0.004272928461
0.08147916667,-0.004313576035
0.0815,-0.004360808525
0.08152083333,-0.004393217154
0.08154166667,-0.00444488693
0.0815625,-0.004465881735
0.08158333333,-0.004513229709
0.08160416667,-0.004532368388
0.081625,-0.0045654024
0.08164583333,-0.004586776718
0.08166666667,-0.004624420311
0.0816875,-0.004655603319
0.08170833333,-0.004681949969
0.08172916667,-0.00472997874
0.08175,-0.004754221998
0.08177083333,-0.004796986002
0.08179166667,-0.00483471062
0.0818125,-0.004857925698
0.08183333333,-0.004901576322
0.08185416667,-0.004907123279
0.081875,-0.004930216819
0.08189583333,-0.004933475051
0.08191666667,-0.004950528033
0.0819375,-0.004971993156
0.08195833333,-0.005011877045
0.08197916667,-0.00505385315
0.082,-0.005086498335
0.08202083333,-0.005105942022
0.08204166667,-0.005121774506
0.0820625,-0.005128993187
0.08208333333,-0.00514429342
0.08210416667,-0.005161679816
0.082125,-0.005184705369
0.08214583333,-0.005198808387
0.08216666667,-0.005230761133
0.0821875,-0.005250016693
0.08220833333,-0.005275876727
0.08222916667,-0.005301140714
0.08225,-0.005306498613
0.08227083333,-0.00534796901
0.08229166667,-0.00537379412
0.0823125,-0.005387764424
0.08233333333,-0.005423609167
0.08235416667,-0.005433853716
0.082375,-0.00546841789
0.08239583333,-0.005496928468
0.08241666667,-0.005514218006
0.0824375,-0.005539526232
0.08245833333,-0.00551600242
0.08247916667,-0.005509477109
0.0825,-0.005511242896
0.08252083333,-0.00550641166
0.08254166667,-0.00553605333
0.0825625,-0.005539868027
0.08258333333,-0.005570424721
0.08260416667,-0.005582648795
0.082625,-0.005585403647
0.08264583333,-0.005599418189
0.08266666667,-0.005599375349
0.0826875,-0.005609948188
0.08270833333,-0.005605689716
0.08272916667,-0.005618306343
0.08275,-0.005613904446
0.08277083333,-0.005633614026
0.08279166667,-0.005656772759
0.0828125,-0.005686946679
0.08283333333,-0.005730859935
0.08285416667,-0.005768469535
0.082875,-0.005789583549
0.08289583333,-0.005830029957
0.08291666667,-0.00583949266
0.0829375,-0.005860214122
0.08295833333,-0.005900539923
0.08297916667,-0.005913184024
0.083,-0.005983643234
0.08302083333,-0.006033621263
0.08304166667,-0.006062647328
0.0830625,-0.006090624258
0.08308333333,-0.006098314654
0.08310416667,-0.006123958156
0.083125,-0.006128413137
0.08314583333,-0.006154300645
0.08316666667,-0.006158859469
0.0831875,-0.0061841649
0.08320833333,-0.006191244349
0.08322916667,-0.006189133041
0.08325,-0.006194274873
0.08327083333,-0.006192576606
0.08329166667,-0.00618447829
0.0833125,-0.00616972195
0.08333333333,-0.006128492765
0.08335416667,-0.006121065933
0.083375,-0.006099985447
0.08339583333,-0.00611515902
0.08341666667,-0.006128875539
0.0834375,-0.006150319707
0.08345833333,-0.006161813159
0.08347916667,-0.006162683014
0.0835,-0.00614500558
0.08352083333,-0.006138687022
0.08354166667,-0.006145583
0.0835625,-0.006159505807
0.08358333333,-0.00616926467
0.08360416667,-0.006194225978
0.083625,-0.006192012224
0.08364583333,-0.006210324354
0.08366666667,-0.00619765697
0.0836875,-0.006191541441
0.08370833333,-0.006192027126
0.08372916667,-0.0061882101
0.08375,-0.006204409059
0.08377083333,-0.006229778286
0.08379166667,-0.006234978326
0.0838125,-0.006262131035
0.08383333333,-0.006232434884
0.08385416667,-0.006242774427
0.083875,-0.006208044011
0.08389583333,-0.006202598102
0.08391666667,-0.00621336
0.0839375,-0.006195649505
0.08395833333,-0.006199083291
0.08397916667,-0.00617061602
0.084,-0.006133458577
0.08402083333,-0.006121784449
0.08404166667,-0.006080913357
0.0840625,-0.006065086927
0.08408333333,-0.006023455877
0.08410416667,-0.00600774819
0.084125,-0.005990729667
0.08414583333,-0.005991748534
0.08416666667,-0.005968879908
0.0841875,-0.005968711339
0.08420833333,-0.00595088955
0.08422916667,-0.005927475169
0.08425,-0.005895289592
0.08427083333,-0.005884604529
0.08429166667,-0.00587258907
0.0843125,-0.005868714768
0.08433333333,-0.005828990601
0.08435416667,-0.005818854086
0.084375,-0.005798016209
0.08439583333,-0.005798060447
0.08441666667,-0.005784483161
0.0844375,-0.00578973582
0.08445833333,-0.00577206118
0.08447916667,-0.005759900436
0.0845,-0.005759598687
0.08452083333,-0.005728314631
0.08454166667,-0.005715144332
0.0845625,-0.005704431329
0.08458333333,-0.005676394794
0.08460416667,-0.005694116931
0.084625,-0.005673564505
0.08464583333,-0.00566679379
0.08466666667,-0.005634522997
0.0846875,-0.005621220451
0.08470833333,-0.005577623844
0.08472916667,-0.005572092254
0.08475,-0.005550735164
0.08477083333,-0.00557420915
0.08479166667,-0.005552405491
0.0848125,-0.00555564696
0.08483333333,-0.005554788746
0.08485416667,-0.005558876321
0.084875,-0.005558557343
0.08489583333,-0.005579119083
0.08491666667,-0.005558603443
0.0849375,-0.005580286495
0.08495833333,-0.00555101037
0.08497916667,-0.005545013584
0.085,-0.005533102434
0.08502083333,-0.005527486559
0.08504166667,-0.005543807521
0.0850625,-0.005534758326
0.08508333333,-0.005515784025
0.08510416667,-0.005544917658
0.085125,-0.005511621479
0.08514583333,-0.005515981
0.08516666667,-0.005480081774
0.0851875,-0.005467286799
0.08520833333,-0.005458835047
0.08522916667,-0.005474833772
0.08525,-0.005457078107
0.08527083333,-0.005455911625
0.08529166667,-0.005443490576
0.0853125,-0.005433374085
0.08533333333,-0.005430470686
0.08535416667,-0.005440121517
0.085375,-0.005397898611
0.08539583333,-0.005438885186
0.08541666667,-0.005401358008
0.0854375,-0.005414326675
0.08545833333,-0.005400905851
0.08547916667,-0.005372292828
0.0855,-0.005368889775
0.08552083333,-0.005362976342
0.08554166667,-0.005314564332
0.0855625,-0.005314482376
0.08558333333,-0.005246043671
0.08560416667,-0.005296052434
0.085625,-0.005250052083
0.08564583333,-0.005245255772
0.08566666667,-0.005223754793
0.0856875,-0.005217392929
0.08570833333,-0.005219613668
0.08572916667,-0.005176354665
0.08575,-0.005199313164
0.08577083333,-0.005182371475
0.08579166667,-0.005149422679
0.0858125,-0.005170750432
0.08583333333,-0.005112344399
0.08585416667,-0.005122100003
0.085875,-0.005104398821
0.08589583333,-0.005053073633
0.08591666667,-0.005048986524
0.0859375,-0.005025993101
0.08595833333,-0.005029518157
0.08597916667,-0.005044893362
0.086,-0.005028419197
0.08602083333,-0.005030794535
0.08604166667,-0.005016807467
0.0860625,-0.00504132174
0.08608333333,-0.005039131269
0.08610416667,-0.005054384004
0.086125,-0.005076508969
0.08614583333,-0.005083133001
0.08616666667,-0.005082514603
0.0861875,-0.005092626438
0.08620833333,-0.005090074148
0.08622916667,-0.005100621842
0.08625,-0.005095454864
0.08627083333,-0.005099716131
0.08629166667,-0.005080647767
0.0863125,-0.005106125493
0.08633333333,-0.005112346262
0.08635416667,-0.005131457001
0.086375,-0.005133309402
0.08639583333,-0.005134519655
0.08641666667,-0.005113545805
0.0864375,-0.005092436913
0.08645833333,-0.005108603742
0.08647916667,-0.005102772731
0.0865,-0.00505864108
0.08652083333,-0.005077980459
0.08654166667,-0.005025718827
0.0865625,-0.005017462652
0.08658333333,-0.005003825296
0.08660416667,-0.004976056051
0.086625,-0.004958397709
0.08664583333,-0.004955903627
0.08666666667,-0.004930215888
0.0866875,-0.004932613578
0.08670833333,-0.004936435726
0.08672916667,-0.004936688114
0.08675,-0.00494706491
0.08677083333,-0.004904852249
0.08679166667,-0.004917494953
0.0868125,-0.004934460856
0.08683333333,-0.004910160322
0.08685416667,-0.004919970874
0.086875,-0.004879074637
0.08689583333,-0.00485387072
0.08691666667,-0.004878208041
0.0869375,-0.00482297549
0.08695833333,-0.00483174203
0.08697916667,-0.004811788909
0.087,-0.004755672533
0.08702083333,-0.004799485207
0.08704166667,-0.004715458024
0.0870625,-0.00474553369
0.08708333333,-0.004703816958
0.08710416667,-0.004665005021
0.087125,-0.004692727234
0.08714583333,-0.004630882293
0.08716666667,-0.004669223912
0.0871875,-0.004629227798
0.08720833333,-0.004590146709
0.08722916667,-0.004593360238
0.08725,-0.004554233048
0.08727083333,-0.004563175142
0.08729166667,-0.004523271229
0.0873125,-0.004510764033
0.08733333333,-0.0044637518
0.08735416667,-0.00441990234
0.087375,-0.004382437095
0.08739583333,-0.00433984492
0.08741666667,-0.004312396981
0.0874375,-0.00428213086
0.08745833333,-0.004246541299
0.08747916667,-0.004238762893
0.0875,-0.004178605042
0.08752083333,-0.004152443726
0.08754166667,-0.004096446559
0.0875625,-0.004032739438
0.08758333333,-0.003990745172
0.08760416667,-0.003927884158
0.087625,-0.003894424997
0.08764583333,-0.003876697272
0.08766666667,-0.003783087479
0.0876875,-0.00373958447
0.08770833333,-0.003687426914
0.08772916667,-0.003606077749
0.08775,-0.003595284186
0.08777083333,-0.003525985638
0.08779166667,-0.003494754434
0.0878125,-0.003475495847
0.08783333333,-0.00341696199
0.08785416667,-0.003416656749
0.087875,-0.003339859657
0.08789583333,-0.003304942511
0.08791666667,-0.003255466931
0.0879375,-0.003173330799
0.08795833333,-0.003173864912
0.08797916667,-0.003085080301
0.088,-0.003080220427
0.08802083333,-0.003014912363
0.08804166667,-0.00295815873
0.0880625,-0.0029105586
0.08808333333,-0.002841422334
0.08810416667,-0.00280385837
0.088125,-0.002770384541
0.08814583333,-0.002693686634
