time,data
0,2.346975947e-07
2.083333333e-05,2.812511752e-07
4.166666667e-05,3.193513578e-07
6.25e-05,3.482479656e-07
8.333333333e-05,3.747879305e-07
0.0001041666667,4.045452329e-07
0.000125,4.379152472e-07
0.0001458333333,4.72017291e-07
0.0001666666667,4.997767746e-07
0.0001875,5.216231216e-07
0.0002083333333,5.40408621e-07
0.0002291666667,5.652759114e-07
0.00025,6.013884217e-07
0.0002708333333,6.483973607e-07
0.0002916666667,7.022109116e-07
0.0003125,7.549344332e-07
0.0003333333333,8.062938832e-07
0.0003541666667,8.558897093e-07
0.000375,9.086155046e-07
0.0003958333333,9.643338217e-07
0.0004166666667,1.019157935e-06
0.0004375,1.068746428e-06
0.0004583333333,1.106692139e-06
0.0004791666667,1.13523015e-06
0.0005,1.155111022e-06
0.0005208333333,1.172373572e-06
0.0005416666667,1.189300406e-06
0.0005625,1.207396394e-06
0.0005833333333,1.228805218e-06
0.0006041666667,1.252152515e-06
0.000625,1.280120387e-06
0.0006458333333,1.30963781e-06
0.0006666666667,1.341900656e-06
0.0006875,1.37522818e-06
0.0007083333333,1.410413915e-06
0.0007291666667,1.447522436e-06
0.00075,1.480767764e-06
0.0007708333333,1.505470323e-06
0.0007916666667,1.510667857e-06
0.0008125,1.49691914e-06
0.0008333333333,1.466702315e-06
0.0008541666667,1.430701559e-06
0.000875,1.396900984e-06
0.0008958333333,1.362167836e-06
0.0009166666667,1.322982598e-06
0.0009375,1.269196559e-06
0.0009583333333,1.20804998e-06
0.0009791666667,1.150716002e-06
0.001,1.112318841e-06
0.001020833333,1.097954282e-06
0.001041666667,1.092004254e-06
0.0010625,1.077798856e-06
0.001083333333,1.036419121e-06
0.001104166667,9.734308151e-07
0.001125,9.023162306e-07
0.001145833333,8.37054813e-07
0.001166666667,7.775497579e-07
0.0011875,7.032812164e-07
0.001208333333,5.972939903e-07
0.001229166667,4.52649374e-07
0.00125,2.905036922e-07
0.001270833333,1.38329483e-07
0.001291666667,1.749733158e-08
0.0013125,-7.553889958e-08
0.001333333333,-1.631294282e-07
0.001354166667,-2.624527156e-07
0.001375,-3.790111407e-07
0.001395833333,-4.898055863e-07
0.001416666667,-5.784976338e-07
0.0014375,-6.384518088e-07
0.001458333333,-6.899952609e-07
0.001479166667,-7.655050922e-07
0.0015,-8.798514841e-07
0.001520833333,-1.033814783e-06
0.001541666667,-1.199082476e-06
0.0015625,-1.357800443e-06
0.001583333333,-1.502713872e-06
0.001604166667,-1.644496365e-06
0.001625,-1.800001542e-06
0.001645833333,-1.965258889e-06
0.001666666667,-2.128828783e-06
0.0016875,-2.263861461e-06
0.001708333333,-2.361127144e-06
0.001729166667,-2.423354545e-06
0.00175,-2.468308594e-06
0.001770833333,-2.513195795e-06
0.001791666667,-2.562941063e-06
0.0018125,-2.619931138e-06
0.001833333333,-2.676125632e-06
0.001854166667,-2.738497187e-06
0.001875,-2.808198587e-06
0.001895833333,-2.892170414e-06
0.001916666667,-2.991661859e-06
0.0019375,-3.098274419e-06
0.001958333333,-3.212791626e-06
0.001979166667,-3.320193855e-06
0.002,-3.417496828e-06
0.002020833333,-3.486324886e-06
0.002041666667,-3.515919161e-06
0.0020625,-3.505413588e-06
0.002083333333,-3.459411573e-06
0.002104166667,-3.403826213e-06
0.002125,-3.344502375e-06
0.002145833333,-3.286855645e-06
0.002166666667,-3.216060577e-06
0.0021875,-3.122815997e-06
0.002208333333,-3.021778866e-06
0.002229166667,-2.934086751e-06
0.00225,-2.894472573e-06
0.002270833333,-2.90025514e-06
0.002291666667,-2.928078857e-06
0.0023125,-2.933357109e-06
0.002333333333,-2.88759702e-06
0.002354166667,-2.79862661e-06
0.002375,-2.693040869e-06
0.002395833333,-2.601102778e-06
0.002416666667,-2.512405672e-06
0.0024375,-2.395256161e-06
0.002458333333,-2.208740852e-06
0.002479166667,-1.949603075e-06
0.0025,-1.657510779e-06
0.002520833333,-1.38705218e-06
0.002541666667,-1.182721007e-06
0.0025625,-1.030285034e-06
0.002583333333,-8.972649539e-07
0.002604166667,-7.410208127e-07
0.002625,-5.607928983e-07
0.002645833333,-3.902447077e-07
0.002666666667,-2.5993441e-07
0.0026875,-1.819248467e-07
0.002708333333,-1.126919074e-07
0.002729166667,-4.521276686e-09
0.00275,1.793851112e-07
0.002770833333,4.322347991e-07
0.002791666667,7.13293332e-07
0.0028125,9.921842548e-07
0.002833333333,1.250577043e-06
0.002854166667,1.510645347e-06
0.002875,1.782287882e-06
0.002895833333,2.068005415e-06
0.002916666667,2.341036407e-06
0.0029375,2.56792714e-06
0.002958333333,2.738267995e-06
0.002979166667,2.851423687e-06
0.003,2.936067176e-06
0.003020833333,3.006687848e-06
0.003041666667,3.078297141e-06
0.0030625,3.159140078e-06
0.003083333333,3.255105639e-06
0.003104166667,3.382558134e-06
0.003125,3.539069212e-06
0.003145833333,3.725543593e-06
0.003166666667,3.922386895e-06
0.0031875,4.126661679e-06
0.003208333333,4.337442533e-06
0.003229166667,4.5574252e-06
0.00325,4.779394658e-06
0.003270833333,4.963929769e-06
0.003291666667,5.081030395e-06
0.0033125,5.104351658e-06
0.003333333333,5.05991602e-06
0.003354166667,4.994675237e-06
0.003375,4.945492492e-06
0.003395833333,4.925273515e-06
0.003416666667,4.890978744e-06
0.0034375,4.822537903e-06
0.003458333333,4.717735919e-06
0.003479166667,4.635374353e-06
0.0035,4.639123745e-06
0.003520833333,4.745456863e-06
0.003541666667,4.914470992e-06
0.0035625,5.051031167e-06
0.003583333333,5.096345831e-06
0.003604166667,5.047410014e-06
0.003625,4.966119377e-06
0.003645833333,4.913084013e-06
0.003666666667,4.887755495e-06
0.0036875,4.831560545e-06
0.003708333333,4.660449122e-06
0.003729166667,4.360790172e-06
0.00375,3.987513992e-06
0.003770833333,3.656400395e-06
0.003791666667,3.441386752e-06
0.0038125,3.338599754e-06
0.003833333333,3.276905318e-06
0.003854166667,3.172935749e-06
0.003875,3.020982376e-06
0.003895833333,2.867500598e-06
0.003916666667,2.791399993e-06
0.0039375,2.808744739e-06
0.003958333333,2.857831532e-06
0.003979166667,2.845374183e-06
0.004,2.690644124e-06
0.004020833333,2.412674576e-06
0.004041666667,2.069690709e-06
0.0040625,1.745635359e-06
0.004083333333,1.463872991e-06
0.004104166667,1.197099664e-06
0.004125,9.063544439e-07
0.004145833333,5.755450161e-07
0.004166666667,2.517155338e-07
0.0041875,-1.016134732e-08
0.004208333333,-1.605009032e-07
0.004229166667,-2.090716862e-07
0.00425,-1.980828586e-07
0.004270833333,-1.763123691e-07
0.004291666667,-1.863142103e-07
0.0043125,-2.262831487e-07
0.004333333333,-3.08341356e-07
0.004354166667,-4.155890849e-07
0.004375,-5.603199611e-07
0.004395833333,-7.391777785e-07
0.004416666667,-9.532108152e-07
0.0044375,-1.213115866e-06
0.004458333333,-1.503037765e-06
0.004479166667,-1.821552587e-06
0.0045,-2.113379878e-06
0.004520833333,-2.329543577e-06
0.004541666667,-2.424440481e-06
0.0045625,-2.389895144e-06
0.004583333333,-2.289483291e-06
0.004604166667,-2.176160024e-06
0.004625,-2.10708572e-06
0.004645833333,-2.050197736e-06
0.004666666667,-1.960891041e-06
0.0046875,-1.805513989e-06
0.004708333333,-1.622185209e-06
0.004729166667,-1.517770443e-06
0.00475,-1.571343091e-06
0.004770833333,-1.799056463e-06
0.004791666667,-2.090414227e-06
0.0048125,-2.316659675e-06
0.004833333333,-2.393949217e-06
0.004854166667,-2.352149295e-06
0.004875,-2.306333499e-06
0.004895833333,-2.322357659e-06
0.004916666667,-2.39345195e-06
0.0049375,-2.380488468e-06
0.004958333333,-2.182397793e-06
0.004979166667,-1.779191621e-06
0.005,-1.297791641e-06
0.005020833333,-9.208768006e-07
0.005041666667,-7.425954891e-07
0.0050625,-7.458585856e-07
0.005083333333,-7.845980008e-07
0.005104166667,-7.587194659e-07
0.005125,-6.603050906e-07
0.005145833333,-5.924116522e-07
0.005166666667,-6.744765528e-07
0.0051875,-9.056456065e-07
0.005208333333,-1.192552077e-06
0.005229166667,-1.355634708e-06
0.00525,-1.315519853e-06
0.005270833333,-1.08815118e-06
0.005291666667,-7.977247378e-07
0.0053125,-5.536125514e-07
0.005333333333,-3.747388462e-07
0.005354166667,-2.182828069e-07
0.005375,-2.712193137e-09
0.005395833333,2.55704748e-07
0.005416666667,4.99546104e-07
0.0054375,6.193362765e-07
0.005458333333,5.633620503e-07
0.005479166667,3.654245688e-07
0.0055,7.703658156e-08
0.005520833333,-1.994661716e-07
0.005541666667,-4.605991819e-07
0.0055625,-6.736625551e-07
0.005583333333,-8.548984738e-07
0.005604166667,-9.889761259e-07
0.005625,-1.046670945e-06
0.005645833333,-1.043409839e-06
0.005666666667,-9.631141893e-07
0.0056875,-8.483739293e-07
0.005708333333,-6.927581921e-07
0.005729166667,-5.203241926e-07
0.00575,-3.716956201e-07
0.005770833333,-2.970778894e-07
0.005791666667,-3.858529283e-07
0.0058125,-6.311680636e-07
0.005833333333,-1.013317501e-06
0.005854166667,-1.414363396e-06
0.005875,-1.779122272e-06
0.005895833333,-2.097950528e-06
0.005916666667,-2.424388413e-06
0.0059375,-2.8202046e-06
0.005958333333,-3.228427659e-06
0.005979166667,-3.558423487e-06
0.006,-3.663143616e-06
0.006020833333,-3.537517614e-06
0.006041666667,-3.286434094e-06
0.0060625,-3.081706609e-06
0.006083333333,-3.067285661e-06
0.006104166667,-3.1911718e-06
0.006125,-3.36775247e-06
0.006145833333,-3.451474868e-06
0.006166666667,-3.482997727e-06
0.0061875,-3.592588655e-06
0.006208333333,-3.922830274e-06
0.006229166667,-4.513690783e-06
0.00625,-5.189084732e-06
0.006270833333,-5.749961474e-06
0.006291666667,-6.028029929e-06
0.0063125,-6.066981769e-06
0.006333333333,-6.020355613e-06
0.006354166667,-6.026960818e-06
0.006375,-6.110376489e-06
0.006395833333,-6.123219464e-06
0.006416666667,-5.956721907e-06
0.0064375,-5.565181254e-06
0.006458333333,-5.123272331e-06
0.006479166667,-4.812814495e-06
0.0065,-4.775283287e-06
0.006520833333,-4.972563147e-06
0.006541666667,-5.23967492e-06
0.0065625,-5.464140486e-06
0.006583333333,-5.572588179e-06
0.006604166667,-5.674114163e-06
0.006625,-5.818192221e-06
0.006645833333,-6.010298421e-06
0.006666666667,-6.165517789e-06
0.0066875,-6.115680662e-06
0.006708333333,-5.845054147e-06
0.006729166667,-5.339697509e-06
0.00675,-4.738982625e-06
0.006770833333,-4.118784545e-06
0.006791666667,-3.529979494e-06
0.0068125,-2.988851065e-06
0.006833333333,-2.476412419e-06
0.006854166667,-2.035531679e-06
0.006875,-1.665093237e-06
0.006895833333,-1.401555664e-06
0.006916666667,-1.211759127e-06
0.0069375,-1.087393457e-06
0.006958333333,-1.009637572e-06
0.006979166667,-9.367632856e-07
0.007,-8.420955169e-07
0.007020833333,-5.877132025e-07
0.007041666667,-1.355339094e-07
0.0070625,5.806919035e-07
0.007083333333,1.452254764e-06
0.007104166667,2.356769301e-06
0.007125,3.212066076e-06
0.007145833333,3.991160611e-06
0.007166666667,4.828047167e-06
0.0071875,5.738545951e-06
0.007208333333,6.70154941e-06
0.007229166667,7.524618013e-06
0.00725,8.029019227e-06
0.007270833333,8.216698916e-06
0.007291666667,8.212288776e-06
0.0073125,8.326021998e-06
0.007333333333,8.672423974e-06
0.007354166667,9.254860743e-06
0.007375,9.858088561e-06
0.007395833333,1.032859291e-05
0.007416666667,1.070696999e-05
0.0074375,1.117201373e-05
0.007458333333,1.19805045e-05
0.007479166667,1.312277072e-05
0.0075,1.441439781e-05
0.007520833333,1.550461639e-05
0.007541666667,1.618675196e-05
0.0075625,1.651639468e-05
0.007583333333,1.668991172e-05
0.007604166667,1.69686009e-05
0.007625,1.731607881e-05
0.007645833333,1.76085432e-05
0.007666666667,1.760460509e-05
0.0076875,1.729231735e-05
0.007708333333,1.686489304e-05
0.007729166667,1.658663859e-05
0.00775,1.667945617e-05
0.007770833333,1.705522482e-05
0.007791666667,1.755579979e-05
0.0078125,1.794973286e-05
0.007833333333,1.819150566e-05
0.007854166667,1.83781649e-05
0.007875,1.858213182e-05
0.007895833333,1.885613528e-05
0.007916666667,1.90184619e-05
0.0079375,1.895842979e-05
0.007958333333,1.854251605e-05
0.007979166667,1.783548578e-05
0.008,1.695276478e-05
0.008020833333,1.599917596e-05
0.008041666667,1.507376692e-05
0.0080625,1.415517272e-05
0.008083333333,1.331067415e-05
0.008104166667,1.253312712e-05
0.008125,1.187616363e-05
0.008145833333,1.133071419e-05
0.008166666667,1.083725147e-05
0.0081875,1.040773168e-05
0.008208333333,9.968993254e-06
0.008229166667,9.582693565e-06
0.00825,9.131150364e-06
0.008270833333,8.536329005e-06
0.008291666667,7.642304809e-06
0.0083125,6.38048823e-06
0.008333333333,4.877877018e-06
0.008354166667,3.260965514e-06
0.008375,1.749661806e-06
0.008395833333,3.086999811e-07
0.008416666667,-1.140206223e-06
0.0084375,-2.703703103e-06
0.008458333333,-4.368231203e-06
0.008479166667,-5.870578207e-06
0.0085,-7.042536254e-06
0.008520833333,-7.746990377e-06
0.008541666667,-8.23289065e-06
0.0085625,-8.787586012e-06
0.008583333333,-9.668831808e-06
0.008604166667,-1.086924112e-05
0.008625,-1.213633368e-05
0.008645833333,-1.329911447e-05
0.008666666667,-1.430364773e-05
0.0086875,-1.543973667e-05
0.008708333333,-1.693875311e-05
0.008729166667,-1.888001498e-05
0.00875,-2.102550388e-05
0.008770833333,-2.293191937e-05
0.008791666667,-2.438581578e-05
0.0088125,-2.53341459e-05
0.008833333333,-2.612456956e-05
0.008854166667,-2.696081901e-05
0.008875,-2.791876432e-05
0.008895833333,-2.879401291e-05
0.008916666667,-2.93127523e-05
0.0089375,-2.948037763e-05
0.008958333333,-2.945515007e-05
0.008979166667,-2.965619933e-05
0.009,-3.026439299e-05
0.009020833333,-3.12654447e-05
0.009041666667,-3.242108141e-05
0.0090625,-3.343649951e-05
0.009083333333,-3.429550998e-05
0.009104166667,-3.501001265e-05
0.009125,-3.578983888e-05
0.009145833333,-3.658197966e-05
0.009166666667,-3.727678995e-05
0.0091875,-3.76612843e-05
0.009208333333,-3.759143874e-05
0.009229166667,-3.714884951e-05
0.00925,-3.642377487e-05
0.009270833333,-3.56337041e-05
0.009291666667,-3.483399269e-05
0.0093125,-3.408659177e-05
0.009333333333,-3.340954208e-05
0.009354166667,-3.279662997e-05
0.009375,-3.230759103e-05
0.009395833333,-3.187224866e-05
0.009416666667,-3.153511716e-05
0.0094375,-3.121560803e-05
0.009458333333,-3.09697898e-05
0.009479166667,-3.073554035e-05
0.0095,-3.040639785e-05
0.009520833333,-2.982065052e-05
0.009541666667,-2.875047721e-05
0.0095625,-2.723047328e-05
0.009583333333,-2.53529779e-05
0.009604166667,-2.342229891e-05
0.009625,-2.15957516e-05
0.009645833333,-1.982642425e-05
0.009666666667,-1.798040466e-05
0.0096875,-1.585643258e-05
0.009708333333,-1.363347928e-05
0.009729166667,-1.156007875e-05
0.00975,-1.001806504e-05
0.009770833333,-9.021483493e-06
0.009791666667,-8.280899237e-06
0.0098125,-7.345618997e-06
0.009833333333,-5.882228834e-06
0.009854166667,-4.021665973e-06
0.009875,-2.052319587e-06
0.009895833333,-3.301746005e-07
0.009916666667,1.223588356e-06
0.0099375,2.964921805e-06
0.009958333333,5.266089374e-06
0.009979166667,8.251708095e-06
0.01,1.315482405e-05
0.01002083333,1.835198782e-05
0.01004166667,2.030505857e-05
0.0100625,1.949001671e-05
0.01008333333,1.814695315e-05
0.01010416667,1.853126014e-05
0.010125,2.113717346e-05
0.01014583333,2.505702469e-05
0.01016666667,2.788095298e-05
0.0101875,2.858073094e-05
0.01020833333,2.762233999e-05
0.01022916667,2.689336543e-05
0.01025,2.777350346e-05
0.01027083333,3.052015018e-05
0.01029166667,3.409041528e-05
0.0103125,3.708426084e-05
0.01033333333,3.875347102e-05
0.01035416667,3.965993164e-05
0.010375,4.039399209e-05
0.01039583333,4.176257789e-05
0.01041666667,4.312797682e-05
0.0104375,4.410170368e-05
0.01045833333,4.448080654e-05
0.01047916667,4.460853233e-05
0.0105,4.47911334e-05
0.01052083333,4.529839862e-05
0.01054166667,4.568280201e-05
0.0105625,4.540948066e-05
0.01058333333,4.44061443e-05
0.01060416667,4.317035928e-05
0.010625,4.24613936e-05
0.01064583333,4.304567119e-05
0.01066666667,4.413524948e-05
0.0106875,4.539139263e-05
0.01070833333,4.570924648e-05
0.01072916667,4.545912816e-05
0.01075,4.46035483e-05
0.01077083333,4.369548697e-05
0.01079166667,4.303511014e-05
0.0108125,4.219667608e-05
0.01083333333,4.117220305e-05
0.01085416667,3.99817618e-05
0.010875,3.85183921e-05
0.01089583333,3.698593719e-05
0.01091666667,3.456390914e-05
0.0109375,3.194211968e-05
0.01095833333,2.884973946e-05
0.01097916667,2.675980977e-05
0.011,2.549875535e-05
0.01102083333,2.53584567e-05
0.01104166667,2.565901377e-05
0.0110625,2.496697016e-05
0.01108333333,2.322002911e-05
0.01110416667,2.057638449e-05
0.011125,1.773466647e-05
0.01114583333,1.577124567e-05
0.01116666667,1.450555192e-05
0.0111875,1.383349809e-05
0.01120833333,1.201034866e-05
0.01122916667,9.228995623e-06
0.01125,5.002887519e-06
0.01127083333,4.998394161e-07
0.01129166667,-3.664609039e-06
0.0113125,-6.546185432e-06
0.01133333333,-8.047412848e-06
0.01135416667,-8.512726708e-06
0.011375,-8.740185876e-06
0.01139583333,-9.477936146e-06
0.01141666667,-1.149714262e-05
0.0114375,-1.438275012e-05
0.01145833333,-1.769078881e-05
0.01147916667,-1.971346137e-05
0.0115,-2.110259265e-05
0.01152083333,-2.146405495e-05
0.01154166667,-2.26015818e-05
0.0115625,-2.492274143e-05
0.01158333333,-2.856521496e-05
0.01160416667,-3.274161281e-05
0.011625,-3.587089668e-05
0.01164583333,-3.775299047e-05
0.01166666667,-3.897538045e-05
0.0116875,-3.983930947e-05
0.01170833333,-4.125844862e-05
0.01172916667,-4.232142601e-05
0.01175,-4.334358164e-05
0.01177083333,-4.353534678e-05
0.01179166667,-4.389060632e-05
0.0118125,-4.434107905e-05
0.01183333333,-4.547785647e-05
0.01185416667,-4.646883463e-05
0.011875,-4.673761578e-05
0.01189583333,-4.674858792e-05
0.01191666667,-4.680386337e-05
0.0119375,-4.790310413e-05
0.01195833333,-5.055875226e-05
0.01197916667,-5.29754434e-05
0.012,-5.489337491e-05
0.01202083333,-5.426571806e-05
0.01204166667,-5.276949014e-05
0.0120625,-5.123549272e-05
0.01208333333,-5.117615365e-05
0.01210416667,-5.103834701e-05
0.012125,-5.001783211e-05
0.01214583333,-4.813653504e-05
0.01216666667,-4.534853724e-05
0.0121875,-4.291858568e-05
0.01220833333,-4.260604328e-05
0.01222916667,-4.336298662e-05
0.01225,-4.461741992e-05
0.01227083333,-4.339949373e-05
0.01229166667,-4.070943396e-05
0.0123125,-3.760361142e-05
0.01233333333,-3.733119229e-05
0.01235416667,-3.862518497e-05
0.012375,-4.031115168e-05
0.01239583333,-3.99469136e-05
0.01241666667,-3.579571421e-05
0.0124375,-2.893986311e-05
0.01245833333,-2.337634942e-05
0.01247916667,-2.128631058e-05
0.0125,-2.282633614e-05
0.01252083333,-2.503612814e-05
0.01254166667,-2.523084186e-05
0.0125625,-2.019743988e-05
0.01258333333,-1.338739912e-05
0.01260416667,-6.853187188e-06
0.012625,-3.921117241e-06
0.01264583333,-4.962911134e-06
0.01266666667,-7.825308785e-06
0.0126875,-9.299955309e-06
0.01270833333,-8.211050044e-06
0.01272916667,-4.89965214e-06
0.01275,-8.870061947e-07
0.01277083333,3.316285301e-06
0.01279166667,5.193785455e-06
0.0128125,7.071102573e-06
0.01283333333,8.539468581e-06
0.01285416667,1.047709338e-05
0.012875,1.329973838e-05
0.01289583333,1.692061051e-05
0.01291666667,2.024122114e-05
0.0129375,2.345168832e-05
0.01295833333,2.551346915e-05
0.01297916667,2.61077912e-05
0.013,2.509477963e-05
0.01302083333,2.416306597e-05
0.01304166667,2.332822987e-05
0.0130625,2.469318861e-05
0.01308333333,2.675146243e-05
0.01310416667,2.935088014e-05
0.013125,3.155826562e-05
0.01314583333,3.255680349e-05
0.01316666667,3.231907249e-05
0.0131875,3.277978976e-05
0.01320833333,3.345673031e-05
0.01322916667,3.541028855e-05
0.01325,3.902315075e-05
0.01327083333,4.156968498e-05
0.01329166667,4.273320155e-05
0.0133125,4.420166806e-05
0.01333333333,4.184665886e-05
0.01335416667,3.945247227e-05
0.013375,3.718979497e-05
0.01339583333,3.565146108e-05
0.01341666667,3.61297607e-05
0.0134375,3.73989642e-05
0.01345833333,3.74812189e-05
0.01347916667,3.709384328e-05
0.0135,3.487551294e-05
0.01352083333,3.310459579e-05
0.01354166667,3.303564517e-05
0.0135625,3.648731945e-05
0.01358333333,4.025084127e-05
0.01360416667,4.234003791e-05
0.013625,3.999803448e-05
0.01364583333,3.490812378e-05
0.01366666667,2.954978663e-05
0.0136875,2.809373109e-05
0.01370833333,3.058971924e-05
0.01372916667,3.461025335e-05
0.01375,3.48459871e-05
0.01377083333,3.004769133e-05
0.01379166667,2.210043021e-05
0.0138125,1.614538269e-05
0.01383333333,1.587058796e-05
0.01385416667,2.044533358e-05
0.013875,2.419718476e-05
0.01389583333,2.525191849e-05
0.01391666667,2.091268107e-05
0.0139375,1.532660281e-05
0.01395833333,1.300959593e-05
0.01397916667,1.484181121e-05
0.014,1.838631761e-05
0.01402083333,2.057136044e-05
0.01404166667,1.683537266e-05
0.0140625,9.521027096e-06
0.01408333333,3.866961833e-06
0.01410416667,3.730458275e-06
0.014125,6.465995739e-06
0.01414583333,9.645292266e-06
0.01416666667,7.333355825e-06
0.0141875,1.736974014e-07
0.01420833333,-6.554104857e-06
0.01422916667,-8.547013749e-06
0.01425,-5.386109478e-06
0.01427083333,1.534787884e-06
0.01429166667,4.121132406e-06
0.0143125,4.414202976e-07
0.01433333333,-5.745479484e-06
0.01435416667,-8.522144526e-06
0.014375,-6.180125638e-06
0.01439583333,5.628862709e-08
0.01441666667,3.199165349e-06
0.0144375,1.534054718e-06
0.01445833333,-6.623745321e-06
0.01447916667,-1.478587092e-05
0.0145,-2.077658792e-05
0.01452083333,-2.078496982e-05
0.01454166667,-1.814940697e-05
0.0145625,-1.586944745e-05
0.01458333333,-1.350087496e-05
0.01460416667,-9.295006748e-06
0.014625,-4.046065442e-06
0.01464583333,1.710448487e-06
0.01466666667,6.133886927e-07
0.0146875,-6.997935998e-06
0.01470833333,-1.816845361e-05
0.01472916667,-2.377770215e-05
0.01475,-1.894540765e-05
0.01477083333,-5.379217782e-06
0.01479166667,5.560728823e-06
0.0148125,2.138263881e-06
0.01483333333,-1.590259853e-05
0.01485416667,-3.460849985e-05
0.014875,-3.846333857e-05
0.01489583333,-2.111188587e-05
0.01491666667,9.563833373e-06
0.0149375,3.376323002e-05
0.01495833333,3.165698581e-05
0.01497916667,4.569229532e-06
0.015,-3.268748696e-05
0.01502083333,-5.321260687e-05
0.01504166667,-4.46413178e-05
0.0150625,-1.336154037e-05
0.01508333333,2.092658724e-05
0.01510416667,3.725941497e-05
0.015125,2.573216989e-05
0.01514583333,1.520750743e-07
0.01516666667,-2.21983646e-05
0.0151875,-2.496200614e-05
0.01520833333,-1.16050951e-05
0.01522916667,6.966000456e-06
0.01525,1.602708471e-05
0.01527083333,1.255789266e-05
0.01529166667,-3.272265303e-07
0.0153125,-1.319888361e-05
0.01533333333,-1.79738654e-05
0.01535416667,-1.365783373e-05
0.015375,-6.011325695e-06
0.01539583333,5.514460554e-06
0.01541666667,1.443928886e-05
0.0154375,2.027100163e-05
0.01545833333,1.879769661e-05
0.01547916667,1.236692151e-05
0.0155,4.089642971e-07
0.01552083333,-1.163183879e-05
0.01554166667,-1.645061093e-05
0.0155625,-1.219597652e-05
0.01558333333,-1.928802249e-06
0.01560416667,7.61356705e-06
0.015625,8.090676602e-06
0.01564583333,1.8692499e-06
0.01566666667,-8.589736353e-06
0.0156875,-1.476577563e-05
0.01570833333,-1.227886423e-05
0.01572916667,-9.359984006e-07
0.01575,8.641311979e-06
0.01577083333,1.263672675e-05
0.01579166667,7.106451449e-06
0.0158125,-4.157672265e-06
0.01583333333,-1.391320075e-05
0.01585416667,-1.799141864e-05
0.015875,-1.570518907e-05
0.01589583333,-1.028255065e-05
0.01591666667,-6.106612545e-06
0.0159375,-3.61381808e-06
0.01595833333,-7.989892765e-06
0.01597916667,-1.296184564e-05
0.016,-1.921561852e-05
0.01602083333,-2.277506246e-05
0.01604166667,-2.295188096e-05
0.0160625,-1.635040462e-05
0.01608333333,-9.776549632e-06
0.01610416667,-7.041082426e-06
0.016125,-8.782366422e-06
0.01614583333,-1.540657286e-05
0.01616666667,-2.294274236e-05
0.0161875,-2.791078805e-05
0.01620833333,-2.685545405e-05
0.01622916667,-1.888189217e-05
0.01625,-1.22534484e-05
0.01627083333,-1.077504839e-05
0.01629166667,-1.67363869e-05
0.0163125,-2.56632502e-05
0.01633333333,-3.377562825e-05
0.01635416667,-3.539162572e-05
0.016375,-3.375981032e-05
0.01639583333,-3.057498543e-05
0.01641666667,-2.517861321e-05
0.0164375,-1.876570241e-05
0.01645833333,-1.365646131e-05
0.01647916667,-1.32658115e-05
0.0165,-1.535104639e-05
0.01652083333,-1.994832746e-05
0.01654166667,-2.749557461e-05
0.0165625,-2.997062438e-05
0.01658333333,-2.808317367e-05
0.01660416667,-1.727600466e-05
0.016625,-1.136202627e-05
0.01664583333,-1.242410417e-05
0.01666666667,-2.319300256e-05
0.0166875,-3.591498535e-05
0.01670833333,-3.996115265e-05
0.01672916667,-3.064671546e-05
0.01675,-8.926303963e-06
0.01677083333,1.112354948e-05
0.01679166667,1.220882405e-05
0.0168125,-2.526467142e-06
0.01683333333,-2.313318328e-05
0.01685416667,-3.363365249e-05
0.016875,-2.55009254e-05
0.01689583333,-2.229184702e-06
0.01691666667,1.730379881e-05
0.0169375,2.18282803e-05
0.01695833333,8.92492335e-06
0.01697916667,-7.456023468e-06
0.017,-1.685113784e-05
0.01702083333,-8.688471098e-06
0.01704166667,6.787709481e-06
0.0170625,1.673946099e-05
0.01708333333,1.70653293e-05
0.01710416667,9.553577911e-06
0.017125,4.727246051e-06
0.01714583333,9.362413039e-06
0.01716666667,1.96184501e-05
0.0171875,3.066758291e-05
0.01720833333,3.253262184e-05
0.01722916667,3.080180613e-05
0.01725,2.991679867e-05
0.01727083333,3.708834629e-05
0.01729166667,4.545235788e-05
0.0173125,4.731686204e-05
0.01733333333,3.569786713e-05
0.01735416667,1.702858026e-05
0.017375,6.362155546e-06
0.01739583333,1.535028787e-05
0.01741666667,4.415058356e-05
0.0174375,7.440458285e-05
0.01745833333,8.457615331e-05
0.01747916667,7.107504643e-05
0.0175,4.369423914e-05
0.01752083333,2.112440779e-05
0.01754166667,2.449977546e-05
0.0175625,5.322610377e-05
0.01758333333,8.157671255e-05
0.01760416667,9.295977361e-05
0.017625,8.153167437e-05
0.01764583333,5.368070561e-05
0.01766666667,3.175594611e-05
0.0176875,3.185892274e-05
0.01770833333,5.164610047e-05
0.01772916667,7.415756409e-05
0.01775,8.678926679e-05
0.01777083333,8.124974556e-05
0.01779166667,6.071106327e-05
0.0178125,4.723555321e-05
0.01783333333,4.270629142e-05
0.01785416667,5.383449025e-05
0.017875,6.458206917e-05
0.01789583333,7.355652633e-05
0.01791666667,7.298983837e-05
0.0179375,6.658120401e-05
0.01795833333,6.12476797e-05
0.01797916667,5.737723768e-05
0.018,5.57464482e-05
0.01802083333,5.358734779e-05
0.01804166667,4.849037941e-05
0.0180625,4.818784873e-05
0.01808333333,4.462436482e-05
0.01810416667,4.388260277e-05
0.018125,3.929719969e-05
0.01814583333,3.835926691e-05
0.01816666667,3.826589818e-05
0.0181875,3.575274968e-05
0.01820833333,3.270069647e-05
0.01822916667,3.030575135e-05
0.01825,2.945965025e-05
0.01827083333,2.913297067e-05
0.01829166667,3.207830741e-05
0.0183125,3.010844011e-05
0.01833333333,2.546127871e-05
0.01835416667,1.852614878e-05
0.018375,3.040687261e-06
0.01839583333,-5.626895927e-06
0.01841666667,-9.417877664e-06
0.0184375,-7.421455848e-06
0.01845833333,-4.23930851e-06
0.01847916667,-4.013434591e-06
0.0185,-5.332583896e-06
0.01852083333,-1.369975325e-05
0.01854166667,-2.136031981e-05
0.0185625,-2.95949776e-05
0.01858333333,-2.800633592e-05
0.01860416667,-2.555696301e-05
0.018625,-2.854880768e-05
0.01864583333,-2.817569475e-05
0.01866666667,-3.344393917e-05
0.0186875,-3.764783833e-05
0.01870833333,-4.532726234e-05
0.01872916667,-5.08240264e-05
0.01875,-5.703447823e-05
0.01877083333,-5.852845788e-05
0.01879166667,-5.782983862e-05
0.0188125,-6.024757022e-05
0.01883333333,-6.011233199e-05
0.01885416667,-6.843617302e-05
0.018875,-7.750482473e-05
0.01889583333,-8.213208639e-05
0.01891666667,-8.15284584e-05
0.0189375,-6.953712e-05
0.01895833333,-6.2039966e-05
0.01897916667,-6.187861436e-05
0.019,-7.385191566e-05
0.01902083333,-8.49782009e-05
0.01904166667,-9.473790851e-05
0.0190625,-9.176125604e-05
0.01908333333,-7.915985771e-05
0.01910416667,-7.281980652e-05
0.019125,-7.941901276e-05
0.01914583333,-9.51731854e-05
0.01916666667,-0.0001053490632
0.0191875,-0.0001042854783
0.01920833333,-8.818550123e-05
0.01922916667,-6.426603795e-05
0.01925,-6.374053191e-05
0.01927083333,-7.92185383e-05
0.01929166667,-0.0001035554887
0.0193125,-0.0001173249329
0.01933333333,-0.0001041730502
0.01935416667,-7.295521937e-05
0.019375,-4.652603093e-05
0.01939583333,-4.355735291e-05
0.01941666667,-6.381935236e-05
0.0194375,-9.092954861e-05
0.01945833333,-0.0001042528384
0.01947916667,-8.840353985e-05
0.0195,-5.76808925e-05
0.01952083333,-3.331574044e-05
0.01954166667,-3.831147842e-05
0.0195625,-6.235065666e-05
0.01958333333,-8.901052934e-05
0.01960416667,-9.137492452e-05
0.019625,-6.615408347e-05
0.01964583333,-2.820756345e-05
0.01966666667,-2.735465387e-06
0.0196875,-8.024120689e-06
0.01970833333,-3.113968705e-05
0.01972916667,-5.081628478e-05
0.01975,-5.082100324e-05
0.01977083333,-2.421212594e-05
0.01979166667,-2.66936695e-07
0.0198125,1.223923573e-05
0.01983333333,-1.34428592e-06
0.01985416667,-2.96882663e-05
0.019875,-4.69183542e-05
0.01989583333,-3.509158705e-05
0.01991666667,2.161676548e-06
0.0199375,4.944235479e-05
0.01995833333,7.493684097e-05
0.01997916667,5.555463576e-05
0.02,1.258580687e-05
0.02002083333,-2.284112634e-05
0.02004166667,-2.855387902e-05
0.0200625,4.927744158e-06
0.02008333333,5.605801562e-05
0.02010416667,9.198635234e-05
0.020125,8.974037337e-05
0.02014583333,5.622715616e-05
0.02016666667,1.237566266e-05
0.0201875,-1.277677256e-06
0.02020833333,2.757281982e-05
0.02022916667,7.789333176e-05
0.02025,0.0001227006142
0.02027083333,0.0001277391275
0.02029166667,9.067062638e-05
0.0203125,4.515489854e-05
0.02033333333,2.000919449e-05
0.02035416667,3.959230162e-05
0.020375,8.790212451e-05
0.02039583333,0.0001360197348
0.02041666667,0.0001459750201
0.0204375,0.0001247315668
0.02045833333,8.929960313e-05
0.02047916667,6.408524496e-05
0.0205,6.930239761e-05
0.02052083333,9.516379941e-05
0.02054166667,0.0001209188922
0.0205625,0.0001256569376
0.02058333333,0.0001102334281
0.02060416667,8.757772594e-05
0.020625,8.265860379e-05
0.02064583333,9.650323773e-05
0.02066666667,0.000113432412
0.0206875,0.0001296511327
0.02070833333,0.0001219421029
0.02072916667,0.0001070489816
0.02075,9.484137263e-05
0.02077083333,9.295599011e-05
0.02079166667,0.0001066590339
0.0208125,0.0001241262071
0.02083333333,0.0001313350513
0.02085416667,0.0001229201298
0.020875,0.0001018494368
0.02089583333,8.315059677e-05
0.02091666667,7.816137077e-05
0.0209375,9.671355656e-05
0.02095833333,0.0001213611031
0.02097916667,0.0001324367186
0.021,0.000118737953
0.02102083333,9.068601503e-05
0.02104166667,6.452830712e-05
0.0210625,6.585016672e-05
0.02108333333,8.62175948e-05
0.02110416667,0.0001162467961
0.021125,0.0001341751486
0.02114583333,0.0001214305958
0.02116666667,8.02569557e-05
0.0211875,3.282306716e-05
0.02120833333,1.421061097e-05
0.02122916667,3.289204324e-05
0.02125,7.072260632e-05
0.02127083333,0.0001019624324
0.02129166667,9.854357631e-05
0.0213125,6.458656571e-05
0.02133333333,2.563105591e-05
0.02135416667,1.350195453e-05
0.021375,3.123640636e-05
0.02139583333,6.586511881e-05
0.02141666667,8.295939915e-05
0.0214375,7.495632599e-05
0.02145833333,4.481520591e-05
0.02147916667,1.20680088e-05
0.0215,1.648491889e-06
0.02152083333,1.490847353e-05
0.02154166667,3.776750236e-05
0.0215625,5.804088141e-05
0.02158333333,6.043466783e-05
0.02160416667,5.143546878e-05
0.021625,3.891570668e-05
0.02164583333,2.988604683e-05
0.02166666667,1.553454786e-05
0.0216875,1.147491275e-05
0.02170833333,1.071939187e-05
0.02172916667,2.392377064e-05
0.02175,4.186947626e-05
0.02177083333,5.413213512e-05
0.02179166667,5.580445577e-05
0.0218125,4.299564898e-05
0.02183333333,2.192059037e-05
0.02185416667,2.106843021e-05
0.021875,3.736459621e-05
0.02189583333,7.131136954e-05
0.02191666667,8.945785521e-05
0.0219375,7.716886466e-05
0.02195833333,4.87438665e-05
0.02197916667,1.844797953e-05
0.022,4.160756362e-06
0.02202083333,2.606281487e-05
0.02204166667,5.451108154e-05
0.0220625,7.005581574e-05
0.02208333333,7.207479212e-05
0.02210416667,6.6163062e-05
0.022125,6.648356066e-05
0.02214583333,9.223999223e-05
0.02216666667,0.0001018597613
0.0221875,0.0001016021197
0.02220833333,8.465170686e-05
0.02222916667,8.228399383e-05
0.02225,0.0001157859806
0.02227083333,0.0001649205224
0.02229166667,0.0001958478824
0.0223125,0.0001837070158
0.02233333333,0.0001292060915
0.02235416667,7.329655637e-05
0.022375,6.956967991e-05
0.02239583333,0.0001461424981
0.02241666667,0.0002488552709
0.0224375,0.0003168491821
0.02245833333,0.0002861157118
0.02247916667,0.0001750698721
0.0225,6.208845298e-05
0.02252083333,3.016878327e-05
0.02254166667,9.902307647e-05
0.0225625,0.0002226046781
0.02258333333,0.0003109313257
0.02260416667,0.0003116871521
0.022625,0.0002265472867
0.02264583333,0.0001385210053
0.02266666667,0.0001128150616
0.0226875,0.0001683191367
0.02270833333,0.0002490073675
0.02272916667,0.0003003599704
0.02275,0.0002916287049
0.02277083333,0.0002453869965
0.02279166667,0.0002034846693
0.0228125,0.0002061890555
0.02283333333,0.0002476395457
0.02285416667,0.0002910587937
0.022875,0.0003017558192
0.02289583333,0.0003000568831
0.02291666667,0.0002929717884
0.0229375,0.0003045198973
0.02295833333,0.0003215721808
0.02297916667,0.0003247633867
0.023,0.0002960454149
0.02302083333,0.0002641075407
0.02304166667,0.0002542958828
0.0230625,0.0002976745891
0.02308333333,0.0003679594374
0.02310416667,0.0004169061431
0.023125,0.0004055880127
0.02314583333,0.0003524360363
0.02316666667,0.0002846010029
0.0231875,0.000255945517
0.02320833333,0.0003029436921
0.02322916667,0.0003762051347
0.02325,0.0004248718615
0.02327083333,0.000426211569
0.02329166667,0.0003827957262
0.0233125,0.0003437169071
0.02333333333,0.0003385431773
0.02335416667,0.0003828385379
0.023375,0.0004341622116
0.02339583333,0.0004687726614
0.02341666667,0.0004575739149
0.0234375,0.0004316584382
0.02345833333,0.0004224899167
0.02347916667,0.0004360379244
0.0235,0.0004640019324
0.02352083333,0.0004789636005
0.02354166667,0.0004717808915
0.0235625,0.0004664387088
0.02358333333,0.0004731791851
0.02360416667,0.0005061140982
0.023625,0.0005467311712
0.02364583333,0.0005684812786
0.02366666667,0.0005509756738
0.0236875,0.0005271009286
0.02370833333,0.0004902726505
0.02372916667,0.0004921638174
0.02375,0.0005171928206
0.02377083333,0.0005506856833
0.02379166667,0.0005571470829
0.0238125,0.0005494243233
0.02383333333,0.0005058575189
0.02385416667,0.0004890115233
0.023875,0.0004955658223
0.02389583333,0.0005184352049
0.02391666667,0.0005381793017
0.0239375,0.000547253585
0.02395833333,0.000538693741
0.02397916667,0.0005368649727
0.024,0.0005352356238
0.02402083333,0.000543992559
0.02404166667,0.0005445551942
0.0240625,0.0005376965273
0.02408333333,0.0005283175269
0.02410416667,0.0005494916695
0.024125,0.0005838331999
0.02414583333,0.0006225190591
0.02416666667,0.0006349177565
0.0241875,0.000622028776
0.02420833333,0.0005878107622
0.02422916667,0.0005764944362
0.02425,0.0006015753606
0.02427083333,0.0006617553881
0.02429166667,0.0007141407696
0.0243125,0.0007258995902
0.02433333333,0.0006890275399
0.02435416667,0.0006429532077
0.024375,0.0006205046084
0.02439583333,0.0006554352585
0.02441666667,0.0007246729219
0.0244375,0.0007831283729
0.02445833333,0.0007913075387
0.02447916667,0.0007608362357
0.0245,0.0007091851439
0.02452083333,0.0006966207293
0.02454166667,0.0007456042804
0.0245625,0.0008193379035
0.02458333333,0.0008786588442
0.02460416667,0.0009095222922
0.024625,0.0008967325557
0.02464583333,0.0008691243711
0.02466666667,0.0008554239175
0.0246875,0.0008713384741
0.02470833333,0.0009127578232
0.02472916667,0.000972638838
0.02475,0.00101861835
0.02477083333,0.001067522098
0.02479166667,0.001073741005
0.0248125,0.00105867791
0.02483333333,0.001005815109
0.02485416667,0.0009573205607
0.024875,0.0009222053923
0.02489583333,0.0009576978628
0.02491666667,0.001041036681
0.0249375,0.00113537244
0.02495833333,0.00118801184
0.02497916667,0.001174469711
0.025,0.001087057521
0.02502083333,0.001021424192
0.02504166667,0.001008505002
0.0250625,0.001083615352
0.02508333333,0.001199772349
0.02510416667,0.001298522227
0.025125,0.001311333617
0.02514583333,0.001267904532
0.02516666667,0.00118489028
0.0251875,0.001140044187
0.02520833333,0.00117030181
0.02522916667,0.001234296826
0.02525,0.001294401009
0.02527083333,0.001300591859
0.02529166667,0.001241895137
0.0253125,0.001141935936
0.02533333333,0.001078268746
0.02535416667,0.001097126631
0.025375,0.001189906034
0.02539583333,0.001310538035
0.02541666667,0.001398354885
0.0254375,0.001407825621
0.02545833333,0.001355256303
0.02547916667,0.001291707507
0.0255,0.001259583398
0.02552083333,0.001291325199
0.02554166667,0.00138133741
0.0255625,0.001453821897
0.02558333333,0.001482325722
0.02560416667,0.001452445751
0.025625,0.001366965007
0.02564583333,0.001327801496
0.02566666667,0.001346795354
0.0256875,0.001448675408
0.02570833333,0.001547503518
0.02572916667,0.001591393608
0.02575,0.001545856358
0.02577083333,0.00146502757
0.02579166667,0.001381837646
0.0258125,0.001400960376
0.02583333333,0.001486499095
0.02585416667,0.001617224421
0.025875,0.001701665693
0.02589583333,0.001729468117
0.02591666667,0.001674688188
0.0259375,0.001637508627
0.02595833333,0.001673202962
0.02597916667,0.001765407389
0.026,0.00183769397
0.02602083333,0.001888285042
0.02604166667,0.001869878615
0.0260625,0.001814214047
0.02608333333,0.001799416495
0.02610416667,0.001852733549
0.026125,0.001956524793
0.02614583333,0.002039465122
0.02616666667,0.00205639028
0.0261875,0.002017152496
0.02620833333,0.001953929663
0.02622916667,0.001926169847
0.02625,0.001961064525
0.02627083333,0.002015189268
0.02629166667,0.002056844067
0.0263125,0.002042257227
0.02633333333,0.002002721187
0.02635416667,0.001965468284
0.026375,0.00196453114
0.02639583333,0.002004100475
0.02641666667,0.002067006426
0.0264375,0.002113279654
0.02645833333,0.002137673553
0.02647916667,0.002123163547
0.0265,0.002103539417
0.02652083333,0.002077205805
0.02654166667,0.00206068554
0.0265625,0.002055842429
0.02658333333,0.00205912604
0.02660416667,0.002084826119
0.026625,0.002087207045
0.02664583333,0.002084505279
0.02666666667,0.002056706231
0.0266875,0.00203925604
0.02670833333,0.002048650524
0.02672916667,0.002114982344
0.02675,0.002199426526
0.02677083333,0.002284255577
0.02679166667,0.002324971138
0.0268125,0.002316148719
0.02683333333,0.002262502443
0.02685416667,0.002242380287
0.026875,0.002250892343
0.02689583333,0.002330876654
0.02691666667,0.002404866507
0.0269375,0.00247715041
0.02695833333,0.002494251821
0.02697916667,0.002474036766
0.027,0.002417739946
0.02702083333,0.002417375334
0.02704166667,0.002480231225
0.0270625,0.002552790567
0.02708333333,0.002657534322
0.02710416667,0.002737331903
0.027125,0.002760426141
0.02714583333,0.002742364537
0.02716666667,0.002704855055
0.0271875,0.002735998016
0.02720833333,0.002820393303
0.02722916667,0.002974177711
0.02725,0.003149517579
0.02727083333,0.00325808255
0.02729166667,0.003242251463
0.0273125,0.003133594524
0.02733333333,0.003024667036
0.02735416667,0.002997967415
0.027375,0.003123236122
0.02739583333,0.003317656228
0.02741666667,0.003476537298
0.0274375,0.003497950733
0.02745833333,0.003386052325
0.02747916667,0.003223634092
0.0275,0.00314639695
0.02752083333,0.003187716706
0.02754166667,0.003350371961
0.0275625,0.003508948022
0.02758333333,0.003599537537
0.02760416667,0.003580923891
0.027625,0.003501799889
0.02764583333,0.003450860968
0.02766666667,0.003416296793
0.0276875,0.003441464622
0.02770833333,0.003483787412
0.02772916667,0.003525334178
0.02775,0.003560755402
0.02777083333,0.003577169729
0.02779166667,0.003534815973
0.0278125,0.003473082557
0.02783333333,0.003453660291
0.02785416667,0.00350987236
0.027875,0.003620683448
0.02789583333,0.003807403846
0.02791666667,0.003913941793
0.0279375,0.003966420423
0.02795833333,0.003962413408
0.02797916667,0.003942705225
0.028,0.003971999511
0.02802083333,0.004168396816
0.02804166667,0.004351186566
0.0280625,0.004450961016
0.02808333333,0.004414216615
0.02810416667,0.004285914823
0.028125,0.00417937804
0.02814583333,0.00420195749
0.02816666667,0.004306321964
0.0281875,0.004420220852
0.02820833333,0.004381892737
0.02822916667,0.004181341268
0.02825,0.003892775392
0.02827083333,0.003727294039
0.02829166667,0.003732670099
0.0283125,0.003894311609
0.02833333333,0.00405732356
0.02835416667,0.004091308918
0.028375,0.004034952261
0.02839583333,0.003919824027
0.02841666667,0.003912690561
0.0284375,0.004026827402
0.02845833333,0.004242251627
0.02847916667,0.004500284325
0.0285,0.004694408737
0.02852083333,0.004800886381
0.02854166667,0.004794056527
0.0285625,0.00474381214
0.02858333333,0.004713510629
0.02860416667,0.004762220196
0.028625,0.004925212823
0.02864583333,0.00520830974
0.02866666667,0.005452899728
0.0286875,0.005540811457
0.02870833333,0.005379020236
0.02872916667,0.005009301007
0.02875,0.004611875396
0.02877083333,0.004504062235
0.02879166667,0.004575621337
0.0288125,0.004853426479
0.02883333333,0.005027105566
0.02885416667,0.004975185264
0.028875,0.004656515084
0.02889583333,0.004310645629
0.02891666667,0.004016628955
0.0289375,0.003981354646
0.02895833333,0.004187184386
0.02897916667,0.004363122862
0.029,0.004336160142
0.02902083333,0.004269861616
0.02904166667,0.004094129894
0.0290625,0.003977734596
0.02908333333,0.003937575966
0.02910416667,0.00415235199
0.029125,0.004357357975
0.02914583333,0.004734075163
0.02916666667,0.005042140838
0.0291875,0.005158565938
0.02920833333,0.005102880765
0.02922916667,0.004884105641
0.02925,0.004614660051
0.02927083333,0.004558234941
0.02929166667,0.00480696559
0.0293125,0.005171933677
0.02933333333,0.005407920107
0.02935416667,0.005380691029
0.029375,0.004939187318
0.02939583333,0.004414829891
0.02941666667,0.004097628407
0.0294375,0.003972527105
0.02945833333,0.004058136605
0.02947916667,0.004042652436
0.0295,0.003809673712
0.02952083333,0.00332114147
0.02954166667,0.002811027458
0.0295625,0.002471824875
0.02958333333,0.002492369618
0.02960416667,0.002626676112
0.029625,0.002769658575
0.02964583333,0.002941526938
0.02966666667,0.00338942185
0.0296875,0.003850165987
0.02970833333,0.004620552063
0.02972916667,0.005330431275
0.02975,0.005646794103
0.02977083333,0.005417045671
0.02979166667,0.005480465479
0.0298125,0.00608722819
0.02983333333,0.007722987793
0.02985416667,0.009419689886
0.029875,0.01072076522
0.02989583333,0.01106602419
0.02991666667,0.0100208465
0.0299375,0.008483997546
0.02995833333,0.008149223402
0.02997916667,0.008785895072
0.03,0.03473735601
0.03002083333,0.03522748128
0.03004166667,0.03472067416
0.0300625,0.03296424448
0.03008333333,0.03171684965
0.03010416667,0.0318714194
0.030125,0.03294046223
0.03014583333,0.03433876112
0.03016666667,0.03567321226
0.0301875,0.03590707853
0.03020833333,0.03561164066
0.03022916667,0.035004884
0.03025,0.03492235392
0.03027083333,0.03523109481
0.03029166667,0.03554616123
0.0303125,0.03553505614
0.03033333333,0.03554492816
0.03035416667,0.0352974236
0.030375,0.03502702713
0.03039583333,0.03471866623
0.03041666667,0.03426343948
0.0304375,0.03341180831
0.03045833333,0.03238417581
0.03047916667,0.03140116483
0.0305,0.03068504855
0.03052083333,0.03019978479
0.03054166667,0.0297848098
0.0305625,0.02915502898
0.03058333333,0.02831227332
0.03060416667,0.02728520334
0.030625,0.02631089836
0.03064583333,0.02579119615
0.03066666667,0.0254909005
0.0306875,0.0253056325
0.03070833333,0.0249387119
0.03072916667,0.02422675863
0.03075,0.02324607782
0.03077083333,0.02235172689
0.03079166667,0.02161337435
0.0308125,0.02110811137
0.03083333333,0.02077163011
0.03085416667,0.02053590678
0.030875,0.02007299475
0.03089583333,0.01967177726
0.03091666667,0.01898963936
0.0309375,0.01831197925
0.03095833333,0.01756841503
0.03097916667,0.01702214591
0.031,0.01647051983
0.03102083333,0.01619299129
0.03104166667,0.01593587361
0.0310625,0.01546417456
0.03108333333,0.01477775723
0.03110416667,0.01415238809
0.031125,0.01356523577
0.03114583333,0.01333722286
0.03116666667,0.01332477946
0.0311875,0.01345280372
0.03120833333,0.01336094737
0.03122916667,0.013123421
0.03125,0.01257705968
0.03127083333,0.01211362705
0.03129166667,0.0118840253
0.0313125,0.0120161986
0.03133333333,0.01226151548
0.03135416667,0.01252758596
0.031375,0.01261618547
0.03139583333,0.01257115882
0.03141666667,0.01242115814
0.0314375,0.01220783312
0.03145833333,0.01199376956
0.03147916667,0.01188880671
0.0315,0.01178832911
0.03152083333,0.01171416044
0.03154166667,0.0114820227
0.0315625,0.01108137146
0.03158333333,0.01052074321
0.03160416667,0.009776239283
0.031625,0.00906062685
0.03164583333,0.008370356634
0.03166666667,0.007766388357
0.0316875,0.007075881585
0.03170833333,0.006114980206
0.03172916667,0.004926882219
0.03175,0.003502096981
0.03177083333,0.002192420419
0.03179166667,0.001047477475
0.0318125,5.749431148e-05
0.03183333333,-0.0009541896288
0.03185416667,-0.002065389184
0.031875,-0.003344939789
0.03189583333,-0.00464421697
0.03191666667,-0.005811887793
0.0319375,-0.006831629202
0.03195833333,-0.007696411572
0.03197916667,-0.008526716381
0.032,-0.009565358981
0.03202083333,-0.01063779555
0.03204166667,-0.01162553299
0.0320625,-0.01258968934
0.03208333333,-0.01347379945
0.03210416667,-0.01426878665
0.032125,-0.0152109554
0.03214583333,-0.01616404392
0.03216666667,-0.01721724868
0.0321875,-0.01839121059
0.03220833333,-0.01954187267
0.03222916667,-0.02067127451
0.03225,-0.0217784401
0.03227083333,-0.0229617022
0.03229166667,-0.02412275225
0.0323125,-0.02534467354
0.03233333333,-0.02658827975
0.03235416667,-0.02785426378
0.032375,-0.02909441292
0.03239583333,-0.03027690388
0.03241666667,-0.03126393631
0.0324375,-0.03224815056
0.03245833333,-0.03320390359
0.03247916667,-0.03437297046
0.0325,-0.03562651947
0.03252083333,-0.03704226762
0.03254166667,-0.03835255653
0.0325625,-0.03951017559
0.03258333333,-0.04043504223
0.03260416667,-0.04134779796
0.032625,-0.04229884222
0.03264583333,-0.04350877926
0.03266666667,-0.04474652931
0.0326875,-0.04605742916
0.03270833333,-0.04716068506
0.03272916667,-0.04818992689
0.03275,-0.04904786497
0.03277083333,-0.05002610013
0.03279166667,-0.05104254931
0.0328125,-0.05208002031
0.03283333333,-0.05323062837
0.03285416667,-0.05424774811
0.032875,-0.05534449592
0.03289583333,-0.05626424029
0.03291666667,-0.05710937455
0.0329375,-0.05803547427
0.03295833333,-0.05887783691
0.03297916667,-0.05985592678
0.033,-0.06087704748
0.03302083333,-0.06175854802
0.03304166667,-0.0625461787
0.0330625,-0.06322901696
0.03308333333,-0.06394093484
0.03310416667,-0.06465506554
0.033125,-0.06544013321
0.03314583333,-0.06623391062
0.03316666667,-0.06698282063
0.0331875,-0.06763333827
0.03320833333,-0.06820420921
0.03322916667,-0.06870026141
0.03325,-0.06925293058
0.03327083333,-0.06979937106
0.03329166667,-0.07044805586
0.0333125,-0.07101106644
0.03333333333,-0.07159099728
0.03335416667,-0.07210230827
0.033375,-0.07267765701
0.03339583333,-0.07322291285
0.03341666667,-0.0738985464
0.0334375,-0.07451023906
0.03345833333,-0.07511638105
0.03347916667,-0.07565125078
0.0335,-0.07617724687
0.03352083333,-0.07666350156
0.03354166667,-0.07714314014
0.0335625,-0.07756197453
0.03358333333,-0.07796958089
0.03360416667,-0.07830217481
0.033625,-0.07872566581
0.03364583333,-0.07915470004
0.03366666667,-0.07965173572
0.0336875,-0.08007884026
0.03370833333,-0.08050557226
0.03372916667,-0.0808898285
0.03375,-0.08135441691
0.03377083333,-0.08182057738
0.03379166667,-0.08235995471
0.0338125,-0.0827774927
0.03383333333,-0.08315645158
0.03385416667,-0.08349098265
0.033875,-0.08389600366
0.03389583333,-0.08438950777
0.03391666667,-0.08502484858
0.0339375,-0.08559158444
0.03395833333,-0.08598509431
0.03397916667,-0.08616100997
0.034,-0.08655503392
0.03402083333,-0.08682788908
0.03404166667,-0.08734044433
0.0340625,-0.0879297331
0.03408333333,-0.08848078549
0.03410416667,-0.08895653486
0.034125,-0.08965063095
0.03414583333,-0.09031350911
0.03416666667,-0.09123273939
0.0341875,-0.09228733182
0.03420833333,-0.09370303154
0.03422916667,-0.09509472549
0.03425,-0.09668426961
0.03427083333,-0.09814134985
0.03429166667,-0.09971873462
0.0343125,-0.1012860537
0.03433333333,-0.1030860022
0.03435416667,-0.1049932316
0.034375,-0.1071250588
0.03439583333,-0.109197244
0.03441666667,-0.1113577858
0.0344375,-0.1134679541
0.03445833333,-0.1155874878
0.03447916667,-0.1178192273
0.0345,-0.1201669872
0.03452083333,-0.1226184815
0.03454166667,-0.1251100451
0.0345625,-0.127576232
0.03458333333,-0.1299641579
0.03460416667,-0.1323016137
0.034625,-0.1346535087
0.03464583333,-0.1370886117
0.03466666667,-0.1396546662
0.0346875,-0.1423127651
0.03470833333,-0.144885987
0.03472916667,-0.1474022865
0.03475,-0.1499467641
0.03477083333,-0.1524102986
0.03479166667,-0.1548710018
0.0348125,-0.1572862267
0.03483333333,-0.1596063823
0.03485416667,-0.1617151797
0.034875,-0.1637202501
0.03489583333,-0.1654405445
0.03491666667,-0.1670147181
0.0349375,-0.1684796512
0.03495833333,-0.1698940098
0.03497916667,-0.1712049395
0.035,-0.172578916
0.03502083333,-0.1737205237
0.03504166667,-0.1748223901
0.0350625,-0.1757034659
0.03508333333,-0.1765363365
0.03510416667,-0.1772053987
0.035125,-0.177939862
0.03514583333,-0.1785258502
0.03516666667,-0.1790801585
0.0351875,-0.1794245541
0.03520833333,-0.1796849519
0.03522916667,-0.1796603352
0.03525,-0.1796310246
0.03527083333,-0.1795513928
0.03529166667,-0.1794711351
0.0353125,-0.1794720292
0.03533333333,-0.1794485897
0.03535416667,-0.1794047803
0.035375,-0.1793230325
0.03539583333,-0.1791497469
0.03541666667,-0.1789551526
0.0354375,-0.1786853373
0.03545833333,-0.1784463227
0.03547916667,-0.1783332229
0.0355,-0.1782393157
0.03552083333,-0.1781467944
0.03554166667,-0.1780702174
0.0355625,-0.1779256463
0.03558333333,-0.1778577119
0.03560416667,-0.1778993905
0.035625,-0.178087011
0.03564583333,-0.1783438772
0.03566666667,-0.178588286
0.0356875,-0.1788183749
0.03570833333,-0.1790526807
0.03572916667,-0.1793118566
0.03575,-0.1796582043
0.03577083333,-0.1801110804
0.03579166667,-0.1805923581
0.0358125,-0.1810236126
0.03583333333,-0.1815462857
0.03585416667,-0.1820835173
0.035875,-0.1826852709
0.03589583333,-0.1833762825
0.03591666667,-0.184198454
0.0359375,-0.1850283593
0.03595833333,-0.185908258
0.03597916667,-0.1868326813
0.036,-0.1877797395
0.03602083333,-0.1887651682
0.03604166667,-0.189763397
0.0360625,-0.1908603907
0.03608333333,-0.191966325
0.03610416667,-0.1931308508
0.036125,-0.1944133937
0.03614583333,-0.1957569569
0.03616666667,-0.1972373873
0.0361875,-0.198639676
0.03620833333,-0.2001764029
0.03622916667,-0.2017332017
0.03625,-0.203372553
0.03627083333,-0.2049802989
0.03629166667,-0.2066128403
0.0363125,-0.208206594
0.03633333333,-0.209805876
0.03635416667,-0.2113099098
0.036375,-0.2127946615
0.03639583333,-0.2142516822
0.03641666667,-0.215741083
0.0364375,-0.2172179818
0.03645833333,-0.2186341435
0.03647916667,-0.2199469656
0.0365,-0.221101433
0.03652083333,-0.2222107947
0.03654166667,-0.2232899666
0.0365625,-0.2242220491
0.03658333333,-0.2251139879
0.03660416667,-0.225661248
0.036625,-0.2261126488
0.03664583333,-0.2264434099
0.03666666667,-0.2268463671
0.0366875,-0.2272402644
0.03670833333,-0.2275683731
0.03672916667,-0.2277701348
0.03675,-0.2278690636
0.03677083333,-0.2278907746
0.03679166667,-0.2280756682
0.0368125,-0.2283077836
0.03683333333,-0.2286300659
0.03685416667,-0.2289362252
0.036875,-0.2293620408
0.03689583333,-0.2296864092
0.03691666667,-0.2301828861
0.0369375,-0.2307729423
0.03695833333,-0.2315804809
0.03697916667,-0.2325585485
0.037,-0.2337278128
0.03702083333,-0.2349397838
0.03704166667,-0.2365419269
0.0370625,-0.2382253408
0.03708333333,-0.2401749194
0.03710416667,-0.2422158569
0.037125,-0.2443751097
0.03714583333,-0.2465821505
0.03716666667,-0.2489847839
0.0371875,-0.2513761222
0.03720833333,-0.2539881468
0.03722916667,-0.2565529644
0.03725,-0.2591934204
0.03727083333,-0.2617169321
0.03729166667,-0.2642359436
0.0373125,-0.266646713
0.03733333333,-0.2690995634
0.03735416667,-0.2715273201
0.037375,-0.2737716436
0.03739583333,-0.2756482065
0.03741666667,-0.2772326767
0.0374375,-0.2784877717
0.03745833333,-0.279659301
0.03747916667,-0.2805997729
0.0375,-0.2813803256
0.03752083333,-0.2818106711
0.03754166667,-0.2819620073
0.0375625,-0.2816213965
0.03758333333,-0.2811423242
0.03760416667,-0.2803090215
0.037625,-0.2795191109
0.03764583333,-0.2786053717
0.03766666667,-0.2775428593
0.0376875,-0.2763449252
0.03770833333,-0.2750050128
0.03772916667,-0.2734861076
0.03775,-0.2720259726
0.03777083333,-0.2705638111
0.03779166667,-0.2690061629
0.0378125,-0.267399013
0.03783333333,-0.2658480406
0.03785416667,-0.2641845345
0.037875,-0.2626004815
0.03789583333,-0.2610754967
0.03791666667,-0.2596498728
0.0379375,-0.2582323253
0.03795833333,-0.2569630146
0.03797916667,-0.2557795644
0.038,-0.2547064722
0.03802083333,-0.2537477016
0.03804166667,-0.2528672516
0.0380625,-0.2519809008
0.03808333333,-0.2512275577
0.03810416667,-0.2505198717
0.038125,-0.2499483675
0.03814583333,-0.2494497448
0.03816666667,-0.249000594
0.0381875,-0.2486626208
0.03820833333,-0.2483924478
0.03822916667,-0.2482717931
0.03825,-0.2483155578
0.03827083333,-0.2484432608
0.03829166667,-0.2487152815
0.0383125,-0.2490407526
0.03833333333,-0.249456495
0.03835416667,-0.250004977
0.038375,-0.2506450713
0.03839583333,-0.2513845861
0.03841666667,-0.2522288263
0.0384375,-0.2531539798
0.03845833333,-0.253986448
0.03847916667,-0.2549013197
0.0385,-0.2557893395
0.03852083333,-0.2566615939
0.03854166667,-0.25747329
0.0385625,-0.2582981586
0.03858333333,-0.2588738799
0.03860416667,-0.2594923377
0.038625,-0.2600588799
0.03864583333,-0.2605439723
0.03866666667,-0.2612006068
0.0386875,-0.2617523968
0.03870833333,-0.2620691955
0.03872916667,-0.26235044
0.03875,-0.2624652982
0.03877083333,-0.2625350952
0.03879166667,-0.2625445724
0.0388125,-0.262522161
0.03883333333,-0.2625101209
0.03885416667,-0.2623862028
0.038875,-0.2621892691
0.03889583333,-0.261936605
0.03891666667,-0.2616476417
0.0389375,-0.2613884211
0.03895833333,-0.261009872
0.03897916667,-0.2606736422
0.039,-0.2602052689
0.03902083333,-0.2597368956
0.03904166667,-0.2592493296
0.0390625,-0.2588239908
0.03908333333,-0.2584173083
0.03910416667,-0.2580223083
0.039125,-0.2575969398
0.03914583333,-0.2572684288
0.03916666667,-0.2568371296
0.0391875,-0.2564951479
0.03920833333,-0.2561270595
0.03922916667,-0.2557671368
0.03925,-0.2555000186
0.03927083333,-0.2551207542
0.03929166667,-0.2547501326
0.0393125,-0.2543271482
0.03933333333,-0.2539050281
0.03935416667,-0.2534559965
0.039375,-0.2530469596
0.03939583333,-0.2527323663
0.03941666667,-0.25226596
0.0394375,-0.2519284189
0.03945833333,-0.2514484525
0.03947916667,-0.2509298921
0.0395,-0.2503997386
0.03952083333,-0.249972716
0.03954166667,-0.2493027002
0.0395625,-0.2488315701
0.03958333333,-0.2481936514
0.03960416667,-0.247413516
0.039625,-0.2467384338
0.03964583333,-0.2460991591
0.03966666667,-0.2457453907
0.0396875,-0.24535954
0.03970833333,-0.24493815
0.03972916667,-0.2444323301
0.03975,-0.2438824922
0.03977083333,-0.2432712317
0.03979166667,-0.2427865714
0.0398125,-0.2421777844
0.03983333333,-0.2416787595
0.03985416667,-0.2410248369
0.039875,-0.2401795238
0.03989583333,-0.2391197681
0.03991666667,-0.2380417287
0.0399375,-0.2369068861
0.03995833333,-0.2358085066
0.03997916667,-0.2344674021
0.04,-0.2332618386
0.04002083333,-0.2316608131
0.04004166667,-0.2300690562
0.0400625,-0.2281602919
0.04008333333,-0.2261245847
0.04010416667,-0.2238748372
0.040125,-0.2215132266
0.04014583333,-0.2189035714
0.04016666667,-0.2163368613
0.0401875,-0.2135540694
0.04020833333,-0.2108240128
0.04022916667,-0.2078591287
0.04025,-0.2050156295
0.04027083333,-0.2019770741
0.04029166667,-0.1989976466
0.0403125,-0.1958806813
0.04033333333,-0.1929817498
0.04035416667,-0.1898580939
0.040375,-0.1869929284
0.04039583333,-0.1840290576
0.04041666667,-0.1811865568
0.0404375,-0.1782423109
0.04045833333,-0.1754041612
0.04047916667,-0.1725894809
0.0405,-0.1698442698
0.04052083333,-0.1672150344
0.04054166667,-0.1646740139
0.0405625,-0.1621301472
0.04058333333,-0.1596566886
0.04060416667,-0.1568783224
0.040625,-0.1542150378
0.04064583333,-0.1513496637
0.04066666667,-0.1485081464
0.0406875,-0.1454792768
0.04070833333,-0.1425782889
0.04072916667,-0.1394514889
0.04075,-0.1362312585
0.04077083333,-0.1327323765
0.04079166667,-0.1292411983
0.0408125,-0.1257398129
0.04083333333,-0.1223169863
0.04085416667,-0.1188823059
0.040875,-0.1155124605
0.04089583333,-0.1121466756
0.04091666667,-0.108863622
0.0409375,-0.1055321321
0.04095833333,-0.1024360135
0.04097916667,-0.0995002687
0.041,-0.09682766348
0.04102083333,-0.09430145472
0.04104166667,-0.09206143767
0.0410625,-0.08993204683
0.04108333333,-0.08803622425
0.04110416667,-0.08632616699
0.041125,-0.08480972797
0.04114583333,-0.08352703601
0.04116666667,-0.08257742971
0.0411875,-0.08177305758
0.04120833333,-0.08121370524
0.04122916667,-0.08079305291
0.04125,-0.08064104617
0.04127083333,-0.08038041741
0.04129166667,-0.08032301068
0.0413125,-0.08014755696
0.04133333333,-0.08010974526
0.04135416667,-0.07990688831
0.041375,-0.0797084868
0.04139583333,-0.07928516716
0.04141666667,-0.07867154479
0.0414375,-0.07785314322
0.04145833333,-0.07673009485
0.04147916667,-0.0754904449
0.0415,-0.07392905653
0.04152083333,-0.07217840105
0.04154166667,-0.0703664124
0.0415625,-0.06822493672
0.04158333333,-0.0659827292
0.04160416667,-0.06340000778
0.041625,-0.06057332456
0.04164583333,-0.05751515925
0.04166666667,-0.05427510291
0.0416875,-0.05081316456
0.04170833333,-0.04727365822
0.04172916667,-0.04368878901
0.04175,-0.03982872516
0.04177083333,-0.0358691141
0.04179166667,-0.03173403442
0.0418125,-0.02754900232
0.04183333333,-0.02326232381
0.04185416667,-0.01902618073
0.041875,-0.01474650111
0.04189583333,-0.01048713736
0.04191666667,-0.006133017596
0.0419375,-0.001824161038
0.04195833333,0.002617589664
0.04197916667,0.006890618708
0.042,0.0111982096
0.04202083333,0.01530890074
0.04204166667,0.01929147169
0.0420625,0.0231908951
0.04208333333,0.02716957219
0.04210416667,0.03105577268
0.042125,0.03499416262
0.04214583333,0.03880983219
0.04216666667,0.04273993149
0.0421875,0.04644753411
0.04220833333,0.05011088029
0.04222916667,0.05371293798
0.04225,0.05742629617
0.04227083333,0.06116446108
0.04229166667,0.06488830596
0.0423125,0.06855455786
0.04233333333,0.07226469368
0.04235416667,0.07581730932
0.042375,0.07938292623
0.04239583333,0.08283231407
0.04241666667,0.08656866848
0.0424375,0.09018588811
0.04245833333,0.09372899681
0.04247916667,0.09718491137
0.0425,0.1006915271
0.04252083333,0.1041841507
0.04254166667,0.1082211286
0.0425625,0.1118748114
0.04258333333,0.1154777184
0.04260416667,0.1190899089
0.042625,0.122370407
0.04264583333,0.125819996
0.04266666667,0.1290410459
0.0426875,0.1323423237
0.04270833333,0.1356071234
0.04272916667,0.1387160867
0.04275,0.1418234706
0.04277083333,0.1448782533
0.04279166667,0.1477624625
0.0428125,0.1506360918
0.04283333333,0.1533197761
0.04285416667,0.1559552848
0.042875,0.1585105807
0.04289583333,0.1609474123
0.04291666667,0.1633191407
0.0429375,0.1656279862
0.04295833333,0.167761758
0.04297916667,0.1698234975
0.043,0.1717374623
0.04302083333,0.1736105382
0.04304166667,0.1753130853
0.0430625,0.1770799607
0.04308333333,0.1785333008
0.04310416667,0.1801057309
0.043125,0.1813375354
0.04314583333,0.182709083
0.04316666667,0.1838342398
0.0431875,0.1850163788
0.04320833333,0.1860657483
0.04322916667,0.1871587187
0.04325,0.1880388856
0.04327083333,0.1888501793
0.04329166667,0.1894654632
0.0433125,0.1901641786
0.04333333333,0.1906676739
0.04335416667,0.191256091
0.043375,0.1916899234
0.04339583333,0.1921532005
0.04341666667,0.192519486
0.0434375,0.1929054558
0.04345833333,0.1930964291
0.04347916667,0.1934105456
0.0435,0.1934845299
0.04352083333,0.1936840564
0.04354166667,0.193576619
0.0435625,0.1935821921
0.04358333333,0.1932753175
0.04360416667,0.1934854537
0.043625,0.1932317764
0.04364583333,0.19315283
0.04366666667,0.1930547506
0.0436875,0.1930611283
0.04370833333,0.1929566562
0.04372916667,0.1927229762
0.04375,0.1924551129
0.04377083333,0.1923357546
0.04379166667,0.192244485
0.0438125,0.1923100799
0.04383333333,0.1921620518
0.04385416667,0.1923681945
0.043875,0.1924114227
0.04389583333,0.1928844899
0.04391666667,0.1932082623
0.0439375,0.1938406974
0.04395833333,0.1944164485
0.04397916667,0.1952839941
0.044,0.1961131692
0.04402083333,0.1972371936
0.04404166667,0.1984599829
0.0440625,0.2000062466
0.04408333333,0.2018010616
0.04410416667,0.2039486319
0.044125,0.2062339485
0.04414583333,0.2089401037
0.04416666667,0.2117584944
0.0441875,0.2149701566
0.04420833333,0.218245402
0.04422916667,0.2217692584
0.04425,0.2252806276
0.04427083333,0.2290070951
0.04429166667,0.2328072935
0.0443125,0.2366974652
0.04433333333,0.2406561226
0.04435416667,0.2446505725
0.044375,0.2486460358
0.04439583333,0.2527945638
0.04441666667,0.2568610013
0.0444375,0.2610269785
0.04445833333,0.2650898397
0.04447916667,0.2691944242
0.0445,0.273363173
0.04452083333,0.2774553299
0.04454166667,0.281668216
0.0445625,0.2858567536
0.04458333333,0.2901261151
0.04460416667,0.2943585813
0.044625,0.2985592186
0.04464583333,0.3027915359
0.04466666667,0.3070095479
0.0446875,0.3111591041
0.04470833333,0.3153276742
0.04472916667,0.3194922209
0.04475,0.3236352503
0.04477083333,0.3277559876
0.04479166667,0.331686765
0.0448125,0.3355548382
0.04483333333,0.3393140733
0.04485416667,0.3428824544
0.044875,0.3461897075
0.04489583333,0.3492901921
0.04491666667,0.3520319164
0.0449375,0.3545774519
0.04495833333,0.356764853
0.04497916667,0.3586245179
0.045,0.3602962494
0.04502083333,0.3616661429
0.04504166667,0.3628844023
0.0450625,0.3638013303
0.04508333333,0.3643811047
0.04510416667,0.3647060394
0.045125,0.364643693
0.04514583333,0.3643465936
0.04516666667,0.3639093339
0.0451875,0.3632465303
0.04520833333,0.3625001609
0.04522916667,0.3615783751
0.04525,0.3604186773
0.04527083333,0.3590982854
0.04529166667,0.3576090634
0.0453125,0.3560266197
0.04533333333,0.3544028103
0.04535416667,0.3527629077
0.045375,0.351061821
0.04539583333,0.3493060768
0.04541666667,0.3477058411
0.0454375,0.3458996415
0.04545833333,0.3441807032
0.04547916667,0.3425454199
0.0455,0.3408822119
0.04552083333,0.3393698037
0.04554166667,0.3379118443
0.0455625,0.3365081549
0.04558333333,0.3350577056
0.04560416667,0.3336818814
0.045625,0.3323701918
0.04564583333,0.3312412202
0.04566666667,0.3302024901
0.0456875,0.3294187784
0.04570833333,0.3286402524
0.04572916667,0.3279130161
0.04575,0.3272573948
0.04577083333,0.3267163634
0.04579166667,0.3262512386
0.0458125,0.3258415759
0.04583333333,0.3253409863
0.04585416667,0.3250540197
0.045875,0.3248173594
0.04589583333,0.3247101903
0.04591666667,0.3247056007
0.0459375,0.3247445524
0.04595833333,0.3248431981
0.04597916667,0.3251070678
0.046,0.3254579306
0.04602083333,0.3259497285
0.04604166667,0.326439172
0.0460625,0.3270493448
0.04608333333,0.3276503384
0.04610416667,0.3284862638
0.046125,0.3293237388
0.04614583333,0.3303806186
0.04616666667,0.3313306272
0.0461875,0.3325700462
0.04620833333,0.3336119354
0.04622916667,0.3349895775
0.04625,0.3362061977
0.04627083333,0.3375193477
0.04629166667,0.3386880755
0.0463125,0.3398970068
0.04633333333,0.3410535455
0.04635416667,0.3424314857
0.046375,0.3436222374
0.04639583333,0.344874382
0.04641666667,0.3459137976
0.0464375,0.3469550908
0.04645833333,0.3477112651
0.04647916667,0.3483490944
0.0465,0.3486629426
0.04652083333,0.3487918079
0.04654166667,0.3486678898
0.0465625,0.3484736085
0.04658333333,0.347928822
0.04660416667,0.3473221958
0.046625,0.3464701772
0.04664583333,0.3455927968
0.04666666667,0.3445831537
0.0466875,0.3435848951
0.04670833333,0.3423102796
0.04672916667,0.341004163
0.04675,0.3396767378
0.04677083333,0.3385252655
0.04679166667,0.3373395801
0.0468125,0.3363593817
0.04683333333,0.3353357017
0.04685416667,0.3345791996
0.046875,0.3339485824
0.04689583333,0.3335722983
0.04691666667,0.3332670331
0.0469375,0.3332644105
0.04695833333,0.3332981467
0.04697916667,0.3336514533
0.047,0.3340601921
0.04702083333,0.3349399567
0.04704166667,0.3361126781
0.0470625,0.3376093805
0.04708333333,0.3391636014
0.04710416667,0.341008842
0.047125,0.3428963423
0.04714583333,0.3449514508
0.04716666667,0.3469326794
0.0471875,0.3490572274
0.04720833333,0.3510699868
0.04722916667,0.3531700671
0.04725,0.3552015424
0.04727083333,0.3571889699
0.04729166667,0.3590948284
0.0473125,0.3608848751
0.04733333333,0.3625146449
0.04735416667,0.3640823066
0.047375,0.3654263914
0.04739583333,0.3665017188
0.04741666667,0.3674032688
0.0474375,0.3679071069
0.04745833333,0.3680047095
0.04747916667,0.3677118123
0.0475,0.366948694
0.04752083333,0.3659143448
0.04754166667,0.3646333218
0.0475625,0.3632148802
0.04758333333,0.3614199758
0.04760416667,0.3593509197
0.047625,0.3573044837
0.04764583333,0.3549333513
0.04766666667,0.3524199426
0.0476875,0.3498262465
0.04770833333,0.3472584188
0.04772916667,0.3448239267
0.04775,0.3424504995
0.04777083333,0.3399079144
0.04779166667,0.337327987
0.0478125,0.3347966373
0.04783333333,0.3320977092
0.04785416667,0.3294220269
0.047875,0.32665205
0.04789583333,0.3238463402
0.04791666667,0.321006
0.0479375,0.3182575405
0.04795833333,0.3153603375
0.04797916667,0.3125449419
0.048,0.3097813725
0.04802083333,0.3071846962
0.04804166667,0.3046312034
0.0480625,0.302272439
0.04808333333,0.3000389636
0.04810416667,0.2979832888
0.048125,0.2961391509
0.04814583333,0.2944523394
0.04816666667,0.292924583
0.0481875,0.2915505767
0.04820833333,0.2903766334
0.04822916667,0.2893390059
0.04825,0.2885566056
0.04827083333,0.2879715264
0.04829166667,0.2874540687
0.0483125,0.2872030139
0.04833333333,0.2870354056
0.04835416667,0.2871679068
0.048375,0.2875012159
0.04839583333,0.28799963
0.04841666667,0.2885920703
0.0484375,0.2891159058
0.04845833333,0.2897134423
0.04847916667,0.2902874947
0.0485,0.2908831239
0.04852083333,0.2913924754
0.04854166667,0.2916965485
0.0485625,0.2918986678
0.04858333333,0.2919656932
0.04860416667,0.2919499278
0.048625,0.2916555405
0.04864583333,0.2912831008
0.04866666667,0.2907537818
0.0486875,0.2900575995
0.04870833333,0.2891764939
0.04872916667,0.2881982028
0.04875,0.2869737744
0.04877083333,0.285682857
0.04879166667,0.2842085958
0.0488125,0.2825888097
0.04883333333,0.2807017565
0.04885416667,0.2789221108
0.048875,0.2769623399
0.04889583333,0.2751230597
0.04891666667,0.2731751502
0.0489375,0.271343857
0.04895833333,0.2693102956
0.04897916667,0.2675546706
0.049,0.2657554448
0.04902083333,0.2641842663
0.04904166667,0.2625662684
0.0490625,0.2611548305
0.04908333333,0.2596903145
0.04910416667,0.2585180998
0.049125,0.2572887242
0.04914583333,0.2562458515
0.04916666667,0.2552773356
0.0491875,0.2544379532
0.04920833333,0.2534953952
0.04922916667,0.2527533472
0.04925,0.251740396
0.04927083333,0.2510257959
0.04929166667,0.2500443161
0.0493125,0.2492321879
0.04933333333,0.2482667565
0.04935416667,0.2474198788
0.049375,0.2464317679
0.04939583333,0.2454127967
0.04941666667,0.2441995144
0.0494375,0.243106693
0.04945833333,0.241777584
0.04947916667,0.2406036109
0.0495,0.2390927225
0.04952083333,0.2376224995
0.04954166667,0.2358839363
0.0495625,0.2342419028
0.04958333333,0.2324083894
0.04960416667,0.2306317985
0.049625,0.2286893576
0.04964583333,0.2269465625
0.04966666667,0.2249651253
0.0496875,0.2229678035
0.04970833333,0.2210084796
0.04972916667,0.218943134
0.04975,0.2169606239
0.04977083333,0.2151654512
0.04979166667,0.213245064
0.0498125,0.2115584463
0.04983333333,0.2097880542
0.04985416667,0.2081674039
0.049875,0.2064293474
0.04989583333,0.2046348751
0.04991666667,0.2028230876
0.0499375,0.200830698
0.04995833333,0.1988343596
0.04997916667,0.1967537254
0.05,0.1948057711
0.05002083333,0.1923733652
0.05004166667,0.1899882704
0.0500625,0.1875062138
0.05008333333,0.1849229187
0.05010416667,0.1822931468
0.050125,0.1794957668
0.05014583333,0.1766379029
0.05016666667,0.1736212969
0.0501875,0.1705684364
0.05020833333,0.1675294191
0.05022916667,0.1644476503
0.05025,0.161265716
0.05027083333,0.1579842269
0.05029166667,0.1548414081
0.0503125,0.1515588164
0.05033333333,0.1483474821
0.05035416667,0.1451872885
0.050375,0.1420889944
0.05039583333,0.1389040202
0.05041666667,0.1357871294
0.0504375,0.1326028109
0.05045833333,0.1294291615
0.05047916667,0.1262941808
0.0505,0.1232448295
0.05052083333,0.120207347
0.05054166667,0.1173591986
0.0505625,0.1144496053
0.05058333333,0.1115121543
0.05060416667,0.1084945425
0.050625,0.1053576693
0.05064583333,0.102066949
0.05066666667,0.09875932336
0.0506875,0.09551288933
0.05070833333,0.09225151688
0.05072916667,0.08883342147
0.05075,0.085142456
0.05077083333,0.08143515885
0.05079166667,0.07744255662
0.0508125,0.07354596257
0.05083333333,0.06963924319
0.05085416667,0.06594390422
0.050875,0.0625115186
0.05089583333,0.05919522047
0.05091666667,0.05602441356
0.0509375,0.05294006318
0.05095833333,0.04981186986
0.05097916667,0.04686812311
0.051,0.04411073029
0.05102083333,0.0418340303
0.05104166667,0.03993351012
0.0510625,0.03832720965
0.05108333333,0.03689887747
0.05110416667,0.03551525623
0.051125,0.03432748094
0.05114583333,0.03332334384
0.05116666667,0.03255333379
0.0511875,0.03226841241
0.05120833333,0.03210993856
0.05122916667,0.03215782717
0.05125,0.0321084708
0.05127083333,0.03220548481
0.05129166667,0.03224031627
0.0513125,0.03235772252
0.05133333333,0.03241052479
0.05135416667,0.03268009052
0.051375,0.03279992938
0.05139583333,0.03293762356
0.05141666667,0.03293071687
0.0514375,0.03258054331
0.05145833333,0.03211379051
0.05147916667,0.03144232556
0.0515,0.03048819862
0.05152083333,0.02937089838
0.05154166667,0.02797455154
0.0515625,0.02658637241
0.05158333333,0.02475955896
0.05160416667,0.02297750488
0.051625,0.02081637271
0.05164583333,0.01843834296
0.05166666667,0.01572869718
0.0516875,0.01298223715
0.05170833333,0.009944366291
0.05172916667,0.00689383503
0.05175,0.003559429664
0.05177083333,0.0002019712119
0.05179166667,-0.003465929069
0.0518125,-0.007102972362
0.05183333333,-0.01094311941
0.05185416667,-0.01470073033
0.051875,-0.01881159469
0.05189583333,-0.02278108336
0.05191666667,-0.02682088688
0.0519375,-0.03073276393
0.05195833333,-0.0347308442
0.05197916667,-0.03866223991
0.052,-0.04275869951
0.05202083333,-0.04651432484
0.05204166667,-0.05046956241
0.0520625,-0.05409081653
0.05208333333,-0.05777955055
0.05210416667,-0.06128565222
0.052125,-0.06475517899
0.05214583333,-0.06820381433
0.05216666667,-0.07174913585
0.0521875,-0.07503341883
0.05220833333,-0.07849826664
0.05222916667,-0.08143537492
0.05225,-0.08472003043
0.05227083333,-0.08775885403
0.05229166667,-0.09067016095
0.0523125,-0.09324172884
0.05233333333,-0.09558788687
0.05235416667,-0.09800894558
0.052375,-0.1005677953
0.05239583333,-0.1026292071
0.05241666667,-0.1049170867
0.0524375,-0.1071318164
0.05245833333,-0.1095220149
0.05247916667,-0.1118692979
0.0525,-0.1142496243
0.05252083333,-0.116442129
0.05254166667,-0.1187664345
0.0525625,-0.1208892986
0.05258333333,-0.1231817156
0.05260416667,-0.1253757477
0.052625,-0.1275694519
0.05264583333,-0.1296623498
0.05266666667,-0.1318612248
0.0526875,-0.1341187805
0.05270833333,-0.1363447458
0.05272916667,-0.1385687441
0.05275,-0.1407453418
0.05277083333,-0.1428875327
0.05279166667,-0.1451258212
0.0528125,-0.1473637968
0.05283333333,-0.1495083123
0.05285416667,-0.1517226249
0.052875,-0.1536901444
0.05289583333,-0.1557457447
0.05291666667,-0.1577941477
0.0529375,-0.1599033475
0.05295833333,-0.1618700773
0.05297916667,-0.1637652367
0.053,-0.1657672673
0.05302083333,-0.1673579216
0.05304166667,-0.1689750701
0.0530625,-0.1704825312
0.05308333333,-0.1714869291
0.05310416667,-0.1731992066
0.053125,-0.1747243851
0.05314583333,-0.1761031598
0.05316666667,-0.1774999797
0.0531875,-0.1787999123
0.05320833333,-0.17996943
0.05322916667,-0.1814734191
0.05325,-0.1825109571
0.05327083333,-0.1837675869
0.05329166667,-0.1847770512
0.0533125,-0.1858027577
0.05333333333,-0.1866459548
0.05335416667,-0.1875918657
0.053375,-0.1883967221
0.05339583333,-0.1891558766
0.05341666667,-0.189718172
0.0534375,-0.1902622283
0.05345833333,-0.190670222
0.05347916667,-0.1911775172
0.0535,-0.1913976818
0.05352083333,-0.1918119937
0.05354166667,-0.1917933077
0.0535625,-0.1919039637
0.05358333333,-0.19187814
0.05360416667,-0.1918879896
0.053625,-0.1918310821
0.05364583333,-0.1918392181
0.05366666667,-0.1917871833
0.0536875,-0.1918910444
0.05370833333,-0.1920237392
0.05372916667,-0.1922161281
0.05375,-0.1923247129
0.05377083333,-0.1924989671
0.05379166667,-0.1928129643
0.0538125,-0.193062678
0.05383333333,-0.1932506859
0.05385416667,-0.1936322004
0.053875,-0.1939250529
0.05389583333,-0.1943515986
0.05391666667,-0.1947722286
0.0539375,-0.1952154636
0.05395833333,-0.1956401169
0.05397916667,-0.1962017119
0.054,-0.1967753917
0.05402083333,-0.1975143701
0.05404166667,-0.1983210742
0.0540625,-0.1994251907
0.05408333333,-0.2008518577
0.05410416667,-0.2024465799
0.054125,-0.2045384645
0.05414583333,-0.2068825662
0.05416666667,-0.2094796747
0.0541875,-0.2124399394
0.05420833333,-0.2154066265
0.05422916667,-0.2188337594
0.05425,-0.2221010029
0.05427083333,-0.225666225
0.05429166667,-0.2295420319
0.0543125,-0.2333579957
0.05433333333,-0.2373563498
0.05435416667,-0.2414473295
0.054375,-0.2453711778
0.05439583333,-0.2493028045
0.05441666667,-0.2533302009
0.0544375,-0.2571452856
0.05445833333,-0.2612176538
0.05447916667,-0.2650590837
0.0545,-0.2688569725
0.05452083333,-0.2727632523
0.05454166667,-0.2765660286
0.0545625,-0.2803143561
0.05458333333,-0.2840301991
0.05460416667,-0.2876982689
0.054625,-0.2914338112
0.05464583333,-0.2950447202
0.05466666667,-0.2988556325
0.0546875,-0.3025288284
0.05470833333,-0.3063085675
0.05472916667,-0.3099994957
0.05475,-0.3137454093
0.05477083333,-0.3172079623
0.05479166667,-0.3207706809
0.0548125,-0.3240792751
0.05483333333,-0.3273728788
0.05485416667,-0.3305350542
0.054875,-0.3335385323
0.05489583333,-0.3362921178
0.05491666667,-0.3388903439
0.0549375,-0.3411617279
0.05495833333,-0.3431930542
0.05497916667,-0.3448058069
0.055,-0.3463047743
0.05502083333,-0.3474391997
0.05504166667,-0.3483040333
0.0550625,-0.3488906622
0.05508333333,-0.3491835296
0.05510416667,-0.3491700292
0.055125,-0.3490840793
0.05514583333,-0.3485374749
0.05516666667,-0.347790122
0.0551875,-0.3467227221
0.05520833333,-0.3455757797
0.05522916667,-0.3442829549
0.05525,-0.3429300785
0.05527083333,-0.3413745165
0.05529166667,-0.3398041427
0.0553125,-0.3381749094
0.05533333333,-0.3365577459
0.05535416667,-0.3347935379
0.055375,-0.333101958
0.05539583333,-0.3313316107
0.05541666667,-0.3296536505
0.0554375,-0.3279730678
0.05545833333,-0.3264516294
0.05547916667,-0.3249170482
0.0555,-0.3234595954
0.05552083333,-0.3221262693
0.05554166667,-0.3209573328
0.0555625,-0.3196965158
0.05558333333,-0.318646729
0.05560416667,-0.3175169826
0.055625,-0.3165183365
0.05564583333,-0.3156414628
0.05566666667,-0.3148446083
0.0556875,-0.3141933978
0.05570833333,-0.3136062622
0.05572916667,-0.3129950762
0.05575,-0.3125559688
0.05577083333,-0.312153697
0.05579166667,-0.311820209
0.0558125,-0.3115624189
0.05583333333,-0.3113397956
0.05585416667,-0.311180979
0.055875,-0.3112205267
0.05589583333,-0.3114704192
0.05591666667,-0.311832428
0.0559375,-0.3122702837
0.05595833333,-0.3128555715
0.05597916667,-0.3136193156
0.056,-0.3143818378
0.05602083333,-0.3151299953
0.05604166667,-0.3158790767
0.0560625,-0.3167003095
0.05608333333,-0.3175708652
0.05610416667,-0.3187077045
0.056125,-0.3199371397
0.05614583333,-0.3213553131
0.05616666667,-0.3228522241
0.0561875,-0.3244964778
0.05620833333,-0.3261449039
0.05622916667,-0.3280231953
0.05625,-0.3298422694
0.05627083333,-0.3318574727
0.05629166667,-0.3338034153
0.0563125,-0.3359090984
0.05633333333,-0.3379686177
0.05635416667,-0.3400503695
0.056375,-0.34202829
0.05639583333,-0.344001025
0.05641666667,-0.3458123803
0.0564375,-0.3475410342
0.05645833333,-0.3490483463
0.05647916667,-0.350374788
0.0565,-0.3514421582
0.05652083333,-0.352312237
0.05654166667,-0.3529381752
0.0565625,-0.3532937169
0.05658333333,-0.3533312082
0.05660416667,-0.3531743586
0.056625,-0.352745831
0.05664583333,-0.3520718515
0.05666666667,-0.3511773646
0.0566875,-0.3501121998
0.05670833333,-0.3489195704
0.05672916667,-0.3476406932
0.05675,-0.3461829424
0.05677083333,-0.3449296951
0.05679166667,-0.3435806632
0.0568125,-0.3424843252
0.05683333333,-0.3414226472
0.05685416667,-0.3404628336
0.056875,-0.3399437368
0.05689583333,-0.3395896554
0.05691666667,-0.3394289017
0.0569375,-0.3395921886
0.05695833333,-0.340031296
0.05697916667,-0.340850085
0.057,-0.3418726325
0.05702083333,-0.3432280719
0.05704166667,-0.3448694646
0.0570625,-0.3468924463
0.05708333333,-0.3492149711
0.05710416667,-0.3516045809
0.057125,-0.3543081582
0.05714583333,-0.3572376668
0.05716666667,-0.3602176011
0.0571875,-0.3632471561
0.05720833333,-0.3663417697
0.05722916667,-0.3693481982
0.05725,-0.3723945022
0.05727083333,-0.3754336238
0.05729166667,-0.3783820868
0.0573125,-0.381170094
0.05733333333,-0.38367787
0.05735416667,-0.38594383
0.057375,-0.3878987134
0.05739583333,-0.3893477619
0.05741666667,-0.3906028569
0.0574375,-0.3912515044
0.05745833333,-0.3915788829
0.05747916667,-0.3914724886
0.0575,-0.3909227848
0.05752083333,-0.3900662065
0.05754166667,-0.3889749348
0.0575625,-0.3874280751
0.05758333333,-0.3856820762
0.05760416667,-0.3835968673
0.057625,-0.381452024
0.05764583333,-0.379052043
0.05766666667,-0.3765685856
0.0576875,-0.3740079105
0.05770833333,-0.3714033365
0.05772916667,-0.3687103391
0.05775,-0.3659643233
0.05777083333,-0.3633799553
0.05779166667,-0.3607276082
0.0578125,-0.3581203818
0.05783333333,-0.3554819822
0.05785416667,-0.3527991176
0.057875,-0.3502295613
0.05789583333,-0.3476518989
0.05791666667,-0.3451160192
0.0579375,-0.3426478505
0.05795833333,-0.3401314318
0.05797916667,-0.3376004696
0.058,-0.3352539837
0.05802083333,-0.3327412903
0.05804166667,-0.3303842545
0.0580625,-0.3280797601
0.05808333333,-0.3259257674
0.05810416667,-0.3238667548
0.058125,-0.3220236897
0.05814583333,-0.3201844096
0.05816666667,-0.3187670112
0.0581875,-0.3173639178
0.05820833333,-0.3163453043
0.05822916667,-0.3156651556
0.05825,-0.3152370453
0.05827083333,-0.3149733841
0.05829166667,-0.3148364425
0.0583125,-0.3147900701
0.05833333333,-0.3150109947
0.05835416667,-0.3155157864
0.058375,-0.316191107
0.05839583333,-0.3171450496
0.05841666667,-0.3182246089
0.0584375,-0.3193791211
0.05845833333,-0.3205275238
0.05847916667,-0.3216975927
0.0585,-0.3228514194
0.05852083333,-0.3239428699
0.05854166667,-0.3250092268
0.0585625,-0.325856477
0.05858333333,-0.3265809715
0.05860416667,-0.3273359239
0.058625,-0.3279499114
0.05864583333,-0.3285642266
0.05866666667,-0.3287487626
0.0586875,-0.329025656
0.05870833333,-0.329003334
0.05872916667,-0.328864783
0.05875,-0.3285140395
0.05877083333,-0.3279925287
0.05879166667,-0.3272199035
0.0588125,-0.326356858
0.05883333333,-0.3252104819
0.05885416667,-0.3240485787
0.058875,-0.3227028251
0.05889583333,-0.3214287758
0.05891666667,-0.3199433982
0.0589375,-0.3184115291
0.05895833333,-0.3169262707
0.05897916667,-0.315602392
0.059,-0.3141169548
0.05902083333,-0.3127842247
0.05904166667,-0.3112759888
0.0590625,-0.3100916147
0.05908333333,-0.3088055253
0.05910416667,-0.3076699376
0.059125,-0.3067644238
0.05914583333,-0.3059087396
0.05916666667,-0.3052314222
0.0591875,-0.304617852
0.05920833333,-0.3038580418
0.05922916667,-0.3030683398
0.05925,-0.3024862409
0.05927083333,-0.3018945754
0.05929166667,-0.3012419641
0.0593125,-0.3005351722
0.05933333333,-0.2997855842
0.05935416667,-0.2990179658
0.059375,-0.2983083427
0.05939583333,-0.2975726724
0.05941666667,-0.296944201
0.0594375,-0.2964179814
0.05945833333,-0.2957576215
0.05947916667,-0.2950391173
0.0595,-0.2942018807
0.05952083333,-0.2933953106
0.05954166667,-0.2924375832
0.0595625,-0.2912399471
0.05958333333,-0.2900393903
0.05960416667,-0.288803488
0.059625,-0.2877467573
0.05964583333,-0.2866640389
0.05966666667,-0.2856619358
0.0596875,-0.28460899
0.05970833333,-0.2834552824
0.05972916667,-0.2824562788
0.05975,-0.2813674212
0.05977083333,-0.2803346515
0.05979166667,-0.2790572047
0.0598125,-0.2776437104
0.05983333333,-0.276127845
0.05985416667,-0.2745518088
0.059875,-0.2732104957
0.05989583333,-0.2719245851
0.05991666667,-0.2704398632
0.0599375,-0.2689423561
0.05995833333,-0.2673794925
0.05997916667,-0.2656136453
0.06,-0.264205873
0.06002083333,-0.2623921633
0.06004166667,-0.2604607344
0.0600625,-0.2582266629
0.06008333333,-0.2559429705
0.06010416667,-0.2533480227
0.060125,-0.250579536
0.06014583333,-0.2476829439
0.06016666667,-0.2445631027
0.0601875,-0.2413938791
0.06020833333,-0.2381556928
0.06022916667,-0.2346328497
0.06025,-0.2313636243
0.06027083333,-0.2278738767
0.06029166667,-0.2244836837
0.0603125,-0.2210304141
0.06033333333,-0.2176866829
0.06035416667,-0.2141838074
0.060375,-0.2108633965
0.06039583333,-0.2074503303
0.06041666667,-0.2043579519
0.0604375,-0.2011941224
0.06045833333,-0.1980987787
0.06047916667,-0.1950071305
0.0605,-0.1920363158
0.06052083333,-0.1891065091
0.06054166667,-0.1861727983
0.0605625,-0.183312133
0.06058333333,-0.1806343347
0.06060416667,-0.1778504848
0.060625,-0.1750146151
0.06064583333,-0.1718795747
0.06066666667,-0.1685105562
0.0606875,-0.1647748947
0.06070833333,-0.1606661379
0.06072916667,-0.1564681828
0.06075,-0.1521997154
0.06077083333,-0.1479706466
0.06079166667,-0.1435115933
0.0608125,-0.1388949305
0.06083333333,-0.1343422681
0.06085416667,-0.1296607107
0.060875,-0.1249879897
0.06089583333,-0.1206664592
0.06091666667,-0.1166251078
0.0609375,-0.1129520088
0.06095833333,-0.1093067452
0.06097916667,-0.1058251485
0.061,-0.1024232581
0.06102083333,-0.09950662404
0.06104166667,-0.09684628993
0.0610625,-0.09477005154
0.06108333333,-0.09328233451
0.06110416667,-0.09225072712
0.061125,-0.09129739553
0.06114583333,-0.09070744365
0.06116666667,-0.09006748348
0.0611875,-0.08965513855
0.06120833333,-0.08941427618
0.06122916667,-0.08945382386
0.06125,-0.08940000832
0.06127083333,-0.08955488354
0.06129166667,-0.08943225443
0.0613125,-0.08935943246
0.06133333333,-0.08913903683
0.06135416667,-0.0887529999
0.061375,-0.08827000856
0.06139583333,-0.08763807267
0.06141666667,-0.0867863372
0.0614375,-0.0858265385
0.06145833333,-0.0844033733
0.06147916667,-0.08295308053
0.0615,-0.08087073267
0.06152083333,-0.07884313911
0.06154166667,-0.07648473233
0.0615625,-0.07379673421
0.06158333333,-0.07110029459
0.06160416667,-0.06801977754
0.061625,-0.06481773406
0.06164583333,-0.0616036877
0.06166666667,-0.05795234069
0.0616875,-0.05417153984
0.06170833333,-0.05047486722
0.06172916667,-0.04626829922
0.06175,-0.0421545282
0.06177083333,-0.03773591667
0.06179166667,-0.03320967406
0.0618125,-0.02859697491
0.06183333333,-0.02378310263
0.06185416667,-0.0187911354
0.061875,-0.01386081427
0.06189583333,-0.008797659539
0.06191666667,-0.003740231041
0.0619375,0.001403404516
0.06195833333,0.006338564213
0.06197916667,0.01144983899
0.062,0.01631284505
0.06202083333,0.02142969146
0.06204166667,0.02615755983
0.0620625,0.03099638037
0.06208333333,0.03566422686
0.06210416667,0.04026301578
0.062125,0.04465932027
0.06214583333,0.04894409701
0.06216666667,0.05310216919
0.0621875,0.05744275451
0.06220833333,0.06156916544
0.06222916667,0.06594290584
0.06225,0.07001721859
0.06227083333,0.07412086427
0.06229166667,0.07797854394
0.0623125,0.08189774305
0.06233333333,0.08560273796
0.06235416667,0.08960038424
0.062375,0.09340038151
0.06239583333,0.09741842747
0.06241666667,0.1013944447
0.0624375,0.105305329
0.06245833333,0.109307535
0.06247916667,0.113310039
0.0625,0.1172697246
0.06252083333,0.1212338433
0.06254166667,0.1250846833
0.0625625,0.1286630332
0.06258333333,0.1328417659
0.06260416667,0.1370742023
0.062625,0.1417067647
0.06264583333,0.1465602815
0.06266666667,0.15078412
0.0626875,0.1548711509
0.06270833333,0.1588608176
0.06272916667,0.1624197513
0.06275,0.1662558466
0.06277083333,0.1699269563
0.06279166667,0.1738818139
0.0628125,0.1776166111
0.06283333333,0.181029126
0.06285416667,0.1842821091
0.062875,0.1874082088
0.06289583333,0.1904171556
0.06291666667,0.1932659745
0.0629375,0.1959178448
0.06295833333,0.1985540092
0.06297916667,0.2009182125
0.063,0.2032848746
0.06302083333,0.2053603083
0.06304166667,0.2075013071
0.0630625,0.2093346864
0.06308333333,0.2111670524
0.06310416667,0.2125727236
0.063125,0.2141305506
0.06314583333,0.2154913992
0.06316666667,0.2168208659
0.0631875,0.2179287076
0.06320833333,0.2190864086
0.06322916667,0.2198013961
0.06325,0.2205669433
0.06327083333,0.2211014926
0.06329166667,0.2216588557
0.0633125,0.2218908966
0.06333333333,0.2221273929
0.06335416667,0.2223531157
0.063375,0.2225358635
0.06339583333,0.2225961387
0.06341666667,0.2225875109
0.0634375,0.2223947942
0.06345833333,0.2223117799
0.06347916667,0.2221213728
0.0635,0.222053349
0.06352083333,0.2219564021
0.06354166667,0.221824795
0.0635625,0.2219083905
0.06358333333,0.2218733877
0.06360416667,0.2218934298
0.063625,0.2219765782
0.06364583333,0.2218912095
0.06366666667,0.2219752818
0.0636875,0.2220139056
0.06370833333,0.2221549898
0.06372916667,0.2231411189
0.06375,0.2242360562
0.06377083333,0.2252565622
0.06379166667,0.22649391
0.0638125,0.228081882
0.06383333333,0.229632318
0.06385416667,0.2310810685
0.063875,0.2323301136
0.06389583333,0.2337532938
0.06391666667,0.2348243296
0.0639375,0.2360262126
0.06395833333,0.2370850742
0.06397916667,0.2382257879
0.064,0.2392439544
0.06402083333,0.2406804413
0.06404166667,0.242068395
0.0640625,0.2438029945
0.06408333333,0.2458200902
0.06410416667,0.2481989861
0.064125,0.250934124
0.06414583333,0.2539853156
0.06416666667,0.2572979033
0.0641875,0.2610190213
0.06420833333,0.2649071217
0.06422916667,0.2690241933
0.06425,0.2731475234
0.06427083333,0.2775081694
0.06429166667,0.2818259597
0.0643125,0.2862228751
0.06433333333,0.2905400693
0.06435416667,0.2949876785
0.064375,0.2993949056
0.06439583333,0.3036794364
0.06441666667,0.3080141544
0.0644375,0.3123024702
0.06445833333,0.3164765835
0.06447916667,0.320646435
0.0645,0.3247565031
0.06452083333,0.3287748098
0.06454166667,0.3328681886
0.0645625,0.3370196819
0.06458333333,0.3412248492
0.06460416667,0.3453177214
0.064625,0.3494614959
0.06464583333,0.3534969389
0.06466666667,0.3576965928
0.0646875,0.3617367148
0.06470833333,0.3659418523
0.06472916667,0.3700687289
0.06475,0.3741223216
0.06477083333,0.3780753911
0.06479166667,0.3821427524
0.0648125,0.3860663772
0.06483333333,0.3897768855
0.06485416667,0.3933304846
0.064875,0.3965287507
0.06489583333,0.3994273841
0.06491666667,0.402153194
0.0649375,0.4044966102
0.06495833333,0.4066700935
0.06497916667,0.4085698128
0.065,0.4102734327
0.06502083333,0.4115862846
0.06504166667,0.4125617146
0.0650625,0.4132458568
0.06508333333,0.4135284722
0.06510416667,0.4134057462
0.065125,0.413045764
0.06514583333,0.412507385
0.06516666667,0.4118467569
0.0651875,0.4109369814
0.06520833333,0.4098034799
0.06522916667,0.4085464478
0.06525,0.4072549045
0.06527083333,0.4056569934
0.06529166667,0.4040904641
0.0653125,0.4022932351
0.06533333333,0.4006125331
0.06535416667,0.3987490237
0.065375,0.396893084
0.06539583333,0.3948864043
0.06541666667,0.3929392397
0.0654375,0.3908832073
0.06545833333,0.3888207972
0.06547916667,0.3868078887
0.0655,0.3848928511
0.06552083333,0.3830325305
0.06554166667,0.3812041879
0.0655625,0.3795443773
0.06558333333,0.3777808547
0.06560416667,0.3762484193
0.065625,0.3747476339
0.06564583333,0.37334463
0.06566666667,0.3722290695
0.0656875,0.3711223304
0.06570833333,0.3703306019
0.06572916667,0.3695260584
0.06575,0.3688927889
0.06577083333,0.3683530688
0.06579166667,0.3678907156
0.0658125,0.3676632643
0.06583333333,0.3672398031
0.06585416667,0.3669968247
0.065875,0.3667939305
0.06589583333,0.3666820824
0.06591666667,0.3668182492
0.0659375,0.3670086563
0.06595833333,0.3673496544
0.06597916667,0.3678007126
0.066,0.3682459295
0.06602083333,0.3688735962
0.06604166667,0.369384259
0.0660625,0.3700359166
0.06608333333,0.3706417382
0.06610416667,0.3713534772
0.066125,0.3720097542
0.06614583333,0.3727680445
0.06616666667,0.3735675514
0.0661875,0.3745460808
0.06620833333,0.3754251599
0.06622916667,0.3763421774
0.06625,0.3772433698
0.06627083333,0.3782473505
0.06629166667,0.3790655732
0.0663125,0.3800364137
0.06633333333,0.3810053766
0.06635416667,0.3818785548
0.066375,0.382766217
0.06639583333,0.3836265802
0.06641666667,0.3843341172
0.0664375,0.3849160373
0.06645833333,0.3854103088
0.06647916667,0.3858237267
0.0665,0.3861939609
0.06652083333,0.3864511549
0.06654166667,0.3865464032
0.0665625,0.3864541054
0.06658333333,0.3861870766
0.06660416667,0.3859450817
0.066625,0.3853755891
0.06664583333,0.3848122656
0.06666666667,0.3839748502
0.0666875,0.3830083907
0.06670833333,0.3819115162
0.06672916667,0.3805705905
0.06675,0.3791725338
0.06677083333,0.3777227998
0.06679166667,0.3762161434
0.0668125,0.3748058975
0.06683333333,0.373295635
0.06685416667,0.3719623685
0.066875,0.3707156479
0.06689583333,0.3696356416
0.06691666667,0.3688994646
0.0669375,0.3682397902
0.06695833333,0.3677878976
0.06697916667,0.3676461875
0.067,0.3678723574
0.06702083333,0.368340075
0.06704166667,0.3691235483
0.0670625,0.370301187
0.06708333333,0.3717753291
0.06710416667,0.373518765
0.067125,0.3756225109
0.06714583333,0.3778551519
0.06716666667,0.3804188967
0.0671875,0.3831051588
0.06720833333,0.3859546483
0.06722916667,0.3889854848
0.06725,0.3918945491
0.06727083333,0.3947038054
0.06729166667,0.3974230289
0.0673125,0.3999024034
0.06733333333,0.4023689926
0.06735416667,0.404491365
0.067375,0.4063381851
0.06739583333,0.4077008367
0.06741666667,0.4087806642
0.0674375,0.4092183411
0.06745833333,0.4092042148
0.06747916667,0.4086633027
0.0675,0.407674849
0.06752083333,0.4061796665
0.06754166667,0.4043631554
0.0675625,0.402197659
0.06758333333,0.3998448849
0.06760416667,0.397028774
0.067625,0.3941632211
0.06764583333,0.3910684884
0.06766666667,0.3878830671
0.0676875,0.3847927451
0.06770833333,0.3816430569
0.06772916667,0.3784838617
0.06775,0.3755077124
0.06777083333,0.3724154234
0.06779166667,0.3693600893
0.0678125,0.3663995564
0.06783333333,0.3634850979
0.06785416667,0.3606536686
0.067875,0.3580420911
0.06789583333,0.3554232717
0.06791666667,0.3528741896
0.0679375,0.3503651619
0.06795833333,0.3480047882
0.06797916667,0.3456452787
0.068,0.343437165
0.06802083333,0.3414075077
0.06804166667,0.3394248486
0.0680625,0.3376660049
0.06808333333,0.3360983729
0.06810416667,0.3347374797
0.068125,0.3333930075
0.06814583333,0.3322039545
0.06816666667,0.3310162723
0.0681875,0.3300573826
0.06820833333,0.3293303549
0.06822916667,0.3288050294
0.06825,0.3284097314
0.06827083333,0.3282310665
0.06829166667,0.3282136917
0.0683125,0.3283816874
0.06833333333,0.328656286
0.06835416667,0.329272598
0.068375,0.3299725056
0.06839583333,0.3309006989
0.06841666667,0.3317281604
0.0684375,0.3325397372
0.06845833333,0.3332719505
0.06847916667,0.3339983225
0.0685,0.3345923424
0.06852083333,0.3350766003
0.06854166667,0.3354598284
0.0685625,0.3356165588
0.06858333333,0.3356741667
0.06860416667,0.3357760906
0.068625,0.3356192112
0.06864583333,0.3353877068
0.06866666667,0.3347370028
0.0686875,0.3341299593
0.06870833333,0.3333359957
0.06872916667,0.3324320614
0.06875,0.3314124942
0.06877083333,0.3302588463
0.06879166667,0.3289454579
0.0688125,0.3275364637
0.06883333333,0.3259240687
0.06885416667,0.3243083954
0.068875,0.3225845695
0.06889583333,0.3209943473
0.06891666667,0.3192307949
0.0689375,0.3174667656
0.06895833333,0.3156889081
0.06897916667,0.3140281439
0.069,0.3123344779
0.06902083333,0.3107408881
0.06904166667,0.3090473711
0.0690625,0.3074214458
0.06908333333,0.3057876825
0.06910416667,0.3042498231
0.069125,0.3027229905
0.06914583333,0.3012050688
0.06916666667,0.2998454273
0.0691875,0.2984516025
0.06920833333,0.2971865237
0.06922916667,0.295930922
0.06925,0.2947571278
0.06927083333,0.2936379313
0.06929166667,0.2924495935
0.0693125,0.2913841307
0.06933333333,0.2904509306
0.06935416667,0.2894340158
0.069375,0.2884845138
0.06939583333,0.2874242365
0.06941666667,0.2864722311
0.0694375,0.2853699923
0.06945833333,0.2843066752
0.06947916667,0.2833603621
0.0695,0.2822714746
0.06952083333,0.2811139822
0.06954166667,0.2798247933
0.0695625,0.2783154547
0.06958333333,0.2769614458
0.06960416667,0.2753472328
0.069625,0.2738268971
0.06964583333,0.2721601725
0.06966666667,0.2705648839
0.0696875,0.268846184
0.06970833333,0.2670696378
0.06972916667,0.2651481628
0.06975,0.2631909847
0.06977083333,0.2612027228
0.06979166667,0.2593966126
0.0698125,0.2575291693
0.06983333333,0.255661726
0.06985416667,0.2538149953
0.069875,0.2519855797
0.06989583333,0.2499184012
0.06991666667,0.2480197996
0.0699375,0.2459284663
0.06995833333,0.2438358217
0.06997916667,0.2414999008
0.07,0.2389848828
0.07002083333,0.2361647189
0.07004166667,0.2333359718
0.0700625,0.2303121835
0.07008333333,0.2271310985
0.07010416667,0.2238314897
0.070125,0.2203299701
0.07014583333,0.2165738791
0.07016666667,0.2126894146
0.0701875,0.2087907642
0.07020833333,0.2048598826
0.07022916667,0.2008517087
0.07025,0.1969265491
0.07027083333,0.193013519
0.07029166667,0.1891252249
0.0703125,0.185298726
0.07033333333,0.1815690249
0.07035416667,0.1778410226
0.070375,0.1740588546
0.07039583333,0.1703932881
0.07041666667,0.1667851061
0.0704375,0.1634231657
0.07045833333,0.1600510478
0.07047916667,0.1568936557
0.0705,0.1538262963
0.07052083333,0.1507257372
0.07054166667,0.1477318406
0.0705625,0.1447440088
0.07058333333,0.1416937262
0.07060416667,0.1386282146
0.070625,0.1353681684
0.07064583333,0.1322204769
0.07066666667,0.1287916601
0.0706875,0.1252986044
0.07070833333,0.1214831769
0.07072916667,0.1174500957
0.07075,0.1132344827
0.07077083333,0.1090471298
0.07079166667,0.104816936
0.0708125,0.1006443053
0.07083333333,0.09636531025
0.07085416667,0.09220959246
0.070875,0.08805383742
0.07089583333,0.08405607939
0.07091666667,0.08014073968
0.0709375,0.0766870603
0.07095833333,0.073571302
0.07097916667,0.07080157101
0.071,0.068209894
0.07102083333,0.06576298922
0.07104166667,0.06327591091
0.0710625,0.06108993664
0.07108333333,0.05919944122
0.07110416667,0.05785348639
0.071125,0.05690178648
0.07114583333,0.05615300313
0.07116666667,0.05558894575
0.0711875,0.05511982366
0.07120833333,0.05466383323
0.07122916667,0.05438939855
0.07125,0.05417177454
0.07127083333,0.0541340299
0.07129166667,0.05411331728
0.0713125,0.0541905947
0.07133333333,0.05402830616
0.07135416667,0.05373615399
0.071375,0.05330023542
0.07139583333,0.05288187787
0.07141666667,0.05234996229
0.0714375,0.05172286928
0.07145833333,0.05101407319
0.07147916667,0.05009284243
0.0715,0.04893896729
0.07152083333,0.04751679674
0.07154166667,0.04591000825
0.0715625,0.04401886463
0.07158333333,0.04216085747
0.07160416667,0.04008541256
0.071625,0.03757248819
0.07164583333,0.03507486731
0.07166666667,0.03219850734
0.0716875,0.02913263068
0.07170833333,0.02581831254
0.07172916667,0.02234720998
0.07175,0.01890563034
0.07177083333,0.01504208893
0.07179166667,0.011261696
0.0718125,0.007242748514
0.07183333333,0.00319860084
0.07185416667,-0.0009590219706
0.071875,-0.005077828187
0.07189583333,-0.009408458136
0.07191666667,-0.01356132701
0.0719375,-0.01786005683
0.07195833333,-0.02205547132
0.07197916667,-0.02633371204
0.072,-0.03043718822
0.07202083333,-0.03450386971
0.07204166667,-0.0384933725
0.0720625,-0.0425131321
0.07208333333,-0.04632426053
0.07210416667,-0.05017892644
0.072125,-0.05384385213
0.07214583333,-0.05751764402
0.07216666667,-0.06095852703
0.0721875,-0.06446278095
0.07220833333,-0.0678896904
0.07222916667,-0.07141634822
0.07225,-0.07464128733
0.07227083333,-0.07815147936
0.07229166667,-0.08146867901
0.0723125,-0.08481837809
0.07233333333,-0.08797325939
0.07235416667,-0.09124857187
0.072375,-0.09444241226
0.07239583333,-0.09779191017
0.07241666667,-0.1009596959
0.0724375,-0.1041416824
0.07245833333,-0.1071935371
0.07247916667,-0.1103010029
0.0725,-0.1132394075
0.07252083333,-0.1161423475
0.07254166667,-0.1189570278
0.0725625,-0.1216785461
0.07258333333,-0.1242945045
0.07260416667,-0.1269042641
0.072625,-0.129030019
0.07264583333,-0.1312516332
0.07266666667,-0.1334857494
0.0726875,-0.1354994774
0.07270833333,-0.1377532333
0.07272916667,-0.1398910284
0.07275,-0.1412304193
0.07277083333,-0.1428091526
0.07279166667,-0.1445041597
0.0728125,-0.1462959796
0.07283333333,-0.1480150521
0.07285416667,-0.1497792155
0.072875,-0.151670754
0.07289583333,-0.1534020901
0.07291666667,-0.1552297622
0.0729375,-0.1571040303
0.07295833333,-0.1588199139
0.07297916667,-0.1605128199
0.073,-0.1622903049
0.07302083333,-0.1638768762
0.07304166667,-0.1655366719
0.0730625,-0.1669766903
0.07308333333,-0.168364659
0.07310416667,-0.169733569
0.073125,-0.1711204052
0.07314583333,-0.1722777486
0.07316666667,-0.173515439
0.0731875,-0.174644053
0.07320833333,-0.1757388711
0.07322916667,-0.1766714901
0.07325,-0.1776530147
0.07327083333,-0.1783741862
0.07329166667,-0.1791641116
0.0733125,-0.1798072159
0.07333333333,-0.1804106385
0.07335416667,-0.180848226
0.073375,-0.1812601089
0.07339583333,-0.1813992262
0.07341666667,-0.1815613955
0.0734375,-0.1814064831
0.07345833333,-0.1812059432
0.07347916667,-0.1809585094
0.0735,-0.1809908599
0.07352083333,-0.1804646552
0.07354166667,-0.179567337
0.0735625,-0.1787488759
0.07358333333,-0.1782416999
0.07360416667,-0.1768236309
0.073625,-0.1755150259
0.07364583333,-0.1741711795
0.07366666667,-0.1729156375
0.0736875,-0.1718134135
0.07370833333,-0.1708340794
0.07372916667,-0.1699332297
0.07375,-0.1693228334
0.07377083333,-0.1687092632
0.07379166667,-0.1683346927
0.0738125,-0.1679722816
0.07383333333,-0.1677158326
0.07385416667,-0.1673597544
0.073875,-0.1673144251
0.07389583333,-0.1672982574
0.07391666667,-0.1674581468
0.0739375,-0.1676451266
0.07395833333,-0.1680399626
0.07397916667,-0.1684831679
0.074,-0.1690634489
0.07402083333,-0.1697343141
0.07404166667,-0.1706224382
0.0740625,-0.1717727929
0.07408333333,-0.1733061671
0.07410416667,-0.1752209067
0.074125,-0.1773820519
0.07414583333,-0.1799862534
0.07416666667,-0.1827968061
0.0741875,-0.185828954
0.07420833333,-0.1891819537
0.07422916667,-0.1926867664
0.07425,-0.1963183731
0.07427083333,-0.2000237107
0.07429166667,-0.2037844211
0.0743125,-0.2076610923
0.07433333333,-0.2116025686
0.07435416667,-0.2155207247
0.074375,-0.2193670422
0.07439583333,-0.2231114656
0.07441666667,-0.2267039865
0.0744375,-0.2304335237
0.07445833333,-0.2339748144
0.07447916667,-0.2375596762
0.0745,-0.241029501
0.07452083333,-0.2445599586
0.07454166667,-0.2479565889
0.0745625,-0.251455456
0.07458333333,-0.254945159
0.07460416667,-0.2584485412
0.074625,-0.262041688
0.07464583333,-0.2656659484
0.07466666667,-0.2693941891
0.0746875,-0.2732054889
0.07470833333,-0.2770504355
0.07472916667,-0.2809155881
0.07475,-0.2847878337
0.07477083333,-0.2887711525
0.07479166667,-0.292540282
0.0748125,-0.2963307798
0.07483333333,-0.2998981774
0.07485416667,-0.3032951355
0.074875,-0.3063623011
0.07489583333,-0.3092026114
0.07491666667,-0.3117424548
0.0749375,-0.3140325844
0.07495833333,-0.3160383701
0.07497916667,-0.3176765442
0.075,-0.3190370798
0.07502083333,-0.3202092648
0.07504166667,-0.3209902048
0.0750625,-0.3214322031
0.07508333333,-0.3217074573
0.07510416667,-0.321549952
0.075125,-0.3211785555
0.07514583333,-0.3206288218
0.07516666667,-0.319778651
0.0751875,-0.3187987506
0.07520833333,-0.3175622821
0.07522916667,-0.3163459897
0.07525,-0.3149844408
0.07527083333,-0.3137012422
0.07529166667,-0.3122752011
0.0753125,-0.3108116686
0.07533333333,-0.3093953133
0.07535416667,-0.3078945279
0.075375,-0.3064017892
0.07539583333,-0.3049311638
0.07541666667,-0.3033552766
0.0754375,-0.3018528223
0.07545833333,-0.3003433645
0.07547916667,-0.2989143729
0.0755,-0.2974381149
0.07552083333,-0.2959025502
0.07554166667,-0.2944206595
0.0755625,-0.2929678559
0.07558333333,-0.2915489972
0.07560416667,-0.2903104424
0.075625,-0.2890179753
0.07564583333,-0.2877340317
0.07566666667,-0.2865412533
0.0756875,-0.2854517102
0.07570833333,-0.2844901383
0.07572916667,-0.2834233344
0.07575,-0.2826533616
0.07577083333,-0.2819035053
0.07579166667,-0.2812460959
0.0758125,-0.2807280123
0.07583333333,-0.280257076
0.07585416667,-0.2799645364
0.075875,-0.2797835469
0.07589583333,-0.279656291
0.07591666667,-0.2798266411
0.0759375,-0.2800728679
0.07595833333,-0.2804696858
0.07597916667,-0.280960083
0.076,-0.2814733386
0.07602083333,-0.2820184231
0.07604166667,-0.282677412
0.0760625,-0.2834049761
0.07608333333,-0.2842830122
0.07610416667,-0.2853044569
0.076125,-0.286505878
0.07614583333,-0.2878279984
0.07616666667,-0.289291352
0.0761875,-0.2908506393
0.07620833333,-0.292499572
0.07622916667,-0.294049412
0.07625,-0.2958548963
0.07627083333,-0.2975512743
0.07629166667,-0.2991233766
0.0763125,-0.3007828295
0.07633333333,-0.3024226427
0.07635416667,-0.3040596843
0.076375,-0.305665642
0.07639583333,-0.3070905209
0.07641666667,-0.3083426654
0.0764375,-0.3094171286
0.07645833333,-0.3104706109
0.07647916667,-0.3112909198
0.0765,-0.3120534718
0.07652083333,-0.3126291037
0.07654166667,-0.3129740357
0.0765625,-0.313054949
0.07658333333,-0.3129667938
0.07660416667,-0.3125810921
0.076625,-0.3120341599
0.07664583333,-0.3114658892
0.07666666667,-0.3105639517
0.0766875,-0.3097273707
0.07670833333,-0.308645606
0.07672916667,-0.3075774014
0.07675,-0.3064623177
0.07677083333,-0.3052940071
0.07679166667,-0.3043667376
0.0768125,-0.3034284115
0.07683333333,-0.3026966751
0.07685416667,-0.3021139205
0.076875,-0.3016403615
0.07689583333,-0.3014733791
0.07691666667,-0.3014011085
0.0769375,-0.3015152812
0.07695833333,-0.3018431962
0.07697916667,-0.302406162
0.077,-0.303198278
0.07702083333,-0.3041933477
0.07704166667,-0.3053933382
0.0770625,-0.3068449497
0.07708333333,-0.3084939718
0.07710416667,-0.3104621172
0.077125,-0.312476933
0.07714583333,-0.3148510754
0.07716666667,-0.3173654079
0.0771875,-0.3200303912
0.07720833333,-0.322730571
0.07722916667,-0.3254308999
0.07725,-0.3280941248
0.07727083333,-0.3309359252
0.07729166667,-0.3336328566
0.0773125,-0.3363761902
0.07733333333,-0.3389344811
0.07735416667,-0.3414741755
0.077375,-0.3437441289
0.07739583333,-0.3457664251
0.07741666667,-0.3474456668
0.0774375,-0.3487087786
0.07745833333,-0.3496019244
0.07747916667,-0.3500580788
0.0775,-0.3500576019
0.07752083333,-0.349650979
0.07754166667,-0.3488413095
0.0775625,-0.3476175964
0.07758333333,-0.3460429907
0.07760416667,-0.3441814184
0.077625,-0.3420282006
0.07764583333,-0.339753449
0.07766666667,-0.3372647166
0.0776875,-0.3346717954
0.07770833333,-0.3319396973
0.07772916667,-0.3290802836
0.07775,-0.3261953294
0.07777083333,-0.3233937323
0.07779166667,-0.3205175996
0.0778125,-0.3175747395
0.07783333333,-0.3147108853
0.07785416667,-0.3119348884
0.077875,-0.3090922534
0.07789583333,-0.3062693179
0.07791666667,-0.3034734428
0.0779375,-0.3006609678
0.07795833333,-0.2979491055
0.07797916667,-0.2953296304
0.078,-0.2928482592
0.07802083333,-0.2905478776
0.07804166667,-0.288389802
0.0780625,-0.2863682508
0.07808333333,-0.2846127152
0.07810416667,-0.2830586433
0.078125,-0.2818204761
0.07814583333,-0.2807473838
0.07816666667,-0.2799861431
0.0781875,-0.2793590426
0.07820833333,-0.2790161669
0.07822916667,-0.2789841592
0.07825,-0.279253006
0.07827083333,-0.2797051668
0.07829166667,-0.2803418636
0.0783125,-0.2810729742
0.07833333333,-0.2819231153
0.07835416667,-0.2828617394
0.078375,-0.2841304541
0.07839583333,-0.2854934335
0.07841666667,-0.2870693505
0.0784375,-0.2885342836
0.07845833333,-0.2901957035
0.07847916667,-0.2916493416
0.0785,-0.292981863
0.07852083333,-0.2941891849
0.07854166667,-0.2953909636
0.0785625,-0.296102941
0.07858333333,-0.2968394756
0.07860416667,-0.2974067032
0.078625,-0.2978122234
0.07864583333,-0.2981446385
0.07866666667,-0.2983137965
0.0786875,-0.298135519
0.07870833333,-0.2979189456
0.07872916667,-0.2974548936
0.07875,-0.2969989181
0.07877083333,-0.2961943746
0.07879166667,-0.2954717577
0.0788125,-0.2947390079
0.07883333333,-0.293915838
0.07885416667,-0.2931796312
0.078875,-0.2921899557
0.07889583333,-0.2911939621
0.07891666667,-0.2902263999
0.0789375,-0.2891198397
0.07895833333,-0.2881732583
0.07897916667,-0.2872615457
0.079,-0.286444962
0.07902083333,-0.285638988
0.07904166667,-0.2848812938
0.0790625,-0.2842707634
0.07908333333,-0.2838806808
0.07910416667,-0.2835118771
0.079125,-0.2832625508
0.07914583333,-0.2829537988
0.07916666667,-0.2827454507
0.0791875,-0.2825823724
0.07920833333,-0.282446295
0.07922916667,-0.2824006975
0.07925,-0.2822249532
0.07927083333,-0.2821086347
0.07929166667,-0.2818974555
0.0793125,-0.2817225158
0.07933333333,-0.2814588845
0.07935416667,-0.2812080383
0.079375,-0.2809425592
0.07939583333,-0.2805738151
0.07941666667,-0.2802806497
0.0794375,-0.2800324559
0.07945833333,-0.2794878185
0.07947916667,-0.2790426016
0.0795,-0.2784291804
0.07952083333,-0.2777456641
0.07954166667,-0.2768227458
0.0795625,-0.2757486403
0.07958333333,-0.2745155096
0.07960416667,-0.2732300162
0.079625,-0.2718574107
0.07964583333,-0.2706244886
0.07966666667,-0.2694654167
0.0796875,-0.2683578432
0.07970833333,-0.2672906816
0.07972916667,-0.2662535608
0.07975,-0.2651889324
0.07977083333,-0.2642852962
0.07979166667,-0.2631336451
0.0798125,-0.2622307241
0.07983333333,-0.2609733343
0.07985416667,-0.259563148
0.079875,-0.2582144737
0.07989583333,-0.2568149865
0.07991666667,-0.2555401921
0.0799375,-0.2542144656
0.07995833333,-0.2528716922
0.07997916667,-0.2515150607
0.08,-0.2501735985
0.08002083333,-0.2484849542
0.08004166667,-0.2465108633
0.0800625,-0.2445041388
0.08008333333,-0.2422695458
0.08010416667,-0.2399629503
0.080125,-0.2373788953
0.08014583333,-0.2346411496
0.08016666667,-0.2317224741
0.0801875,-0.2285201252
0.08020833333,-0.2251855731
0.08022916667,-0.221706748
0.08025,-0.2183132619
0.08027083333,-0.2148018777
0.08029166667,-0.2113515139
0.0803125,-0.2078188509
0.08033333333,-0.2043611407
0.08035416667,-0.2008376271
0.080375,-0.1974689662
0.08039583333,-0.1942206174
0.08041666667,-0.191220969
0.0804375,-0.1882770061
0.08045833333,-0.1854518801
0.08047916667,-0.1826457977
0.0805,-0.1799339801
0.08052083333,-0.177352801
0.08054166667,-0.1749625355
0.0805625,-0.1725113988
0.08058333333,-0.1700219363
0.08060416667,-0.1673521996
0.080625,-0.1646871418
0.08064583333,-0.1617842168
0.08066666667,-0.1588530391
0.0806875,-0.1557269543
0.08070833333,-0.1523357034
0.08072916667,-0.1486226171
0.08075,-0.1446997672
0.08077083333,-0.1405496299
0.08079166667,-0.1362702847
0.0808125,-0.1318337321
0.08083333333,-0.1275699288
0.08085416667,-0.1233662963
0.080875,-0.1192772388
0.08089583333,-0.1151925772
0.08091666667,-0.1111526117
0.0809375,-0.1072217524
0.08095833333,-0.1033921018
0.08097916667,-0.0998736769
0.081,-0.09705109894
0.08102083333,-0.09443872422
0.08104166667,-0.09226700664
0.0810625,-0.09023682773
0.08108333333,-0.08837544173
0.08110416667,-0.08683924377
0.081125,-0.08567629755
0.08114583333,-0.08501555771
0.08116666667,-0.08480545878
0.0811875,-0.0848230347
0.08120833333,-0.08497156948
0.08122916667,-0.08495735377
0.08125,-0.08483831584
0.08127083333,-0.08466447145
0.08129166667,-0.08459070325
0.0813125,-0.08462233096
0.08133333333,-0.0847697854
0.08135416667,-0.0847543329
0.081375,-0.08450001478
0.08139583333,-0.08391238749
0.08141666667,-0.08309892565
0.0814375,-0.08200588822
0.08145833333,-0.080864124
0.08147916667,-0.07961127162
0.0815,-0.07821329683
0.08152083333,-0.07661877573
0.08154166667,-0.074705109
0.0815625,-0.07250310481
0.08158333333,-0.07003115118
0.08160416667,-0.06742295623
0.081625,-0.06460177898
0.08164583333,-0.06178451702
0.08166666667,-0.05882786214
0.0816875,-0.05566947535
0.08170833333,-0.05241460353
0.08172916667,-0.04888802767
0.08175,-0.04522524402
0.08177083333,-0.04141573235
0.08179166667,-0.03740949556
0.0818125,-0.03331408277
0.08183333333,-0.0288762711
0.08185416667,-0.02459278144
0.081875,-0.01998202503
0.08189583333,-0.01541026961
0.08191666667,-0.01056735218
0.0819375,-0.005736830179
0.08195833333,-0.0008187759668
0.08197916667,0.004016139545
0.082,0.008787683211
0.08202083333,0.01350584161
0.08204166667,0.0182658527
0.0820625,0.02280814014
0.08208333333,0.0272806976
0.08210416667,0.03169487417
0.082125,0.03605215624
0.08214583333,0.04024845362
0.08216666667,0.04441808164
0.0821875,0.04840362072
0.08220833333,0.05248920992
0.08222916667,0.0562954098
0.08225,0.06024625152
0.08227083333,0.06399521977
0.08229166667,0.06773011386
0.0823125,0.07130668312
0.08233333333,0.07496757805
0.08235416667,0.07850948721
0.082375,0.08205794543
0.08239583333,0.08560335636
0.08241666667,0.08910018951
0.0824375,0.09252551943
0.08245833333,0.09591186047
0.08247916667,0.09922773391
0.0825,0.1025196761
0.08252083333,0.1057432219
0.08254166667,0.1089888662
0.0825625,0.1121496186
0.08258333333,0.1152973697
0.08260416667,0.1183245033
0.082625,0.1213987097
0.08264583333,0.124381341
0.08266666667,0.1273244321
0.0826875,0.1301103234
0.08270833333,0.1328064799
0.08272916667,0.1354295909
0.08275,0.1379546225
0.08277083333,0.1403666437
0.08279166667,0.142863825
0.0828125,0.1452750117
0.08283333333,0.1477104425
0.08285416667,0.1500654072
0.082875,0.1524657905
0.08289583333,0.1547278315
0.08291666667,0.1567640752
0.0829375,0.159386605
0.08295833333,0.1627041399
0.08297916667,0.1654498279
0.083,0.1682361364
0.08302083333,0.1709955335
0.08304166667,0.1733869016
0.0830625,0.1757720709
0.08308333333,0.1778057367
0.08310416667,0.18014355
0.083125,0.1822928786
0.08314583333,0.1841806024
0.08316666667,0.185998559
0.0831875,0.1874649227
0.08320833333,0.1888752878
0.08322916667,0.1900251061
0.08325,0.1910213828
0.08327083333,0.191916123
0.08329166667,0.1925336719
0.0833125,0.1930532753
0.08333333333,0.1932086498
0.08335416667,0.1934843957
0.083375,0.1934338957
0.08339583333,0.1933944523
0.08341666667,0.1932549328
0.0834375,0.1929758191
0.08345833333,0.1926616728
0.08347916667,0.1923245043
0.0835,0.1918740124
0.08352083333,0.1916014254
0.08354166667,0.1911440343
0.0835625,0.1908246577
0.08358333333,0.1904532313
0.08360416667,0.1901234984
0.083625,0.1897713691
0.08364583333,0.189570576
0.08366666667,0.1892669201
0.0836875,0.1889903545
0.08370833333,0.1886160672
0.08372916667,0.1883505285
0.08375,0.1880637854
0.08377083333,0.1879377365
0.08379166667,0.1877356172
0.0838125,0.1876021624
0.08383333333,0.1873167157
0.08385416667,0.1871691197
0.083875,0.1869661361
0.08389583333,0.1868964136
0.08391666667,0.1868452579
0.0839375,0.1869134158
0.08395833333,0.1870371848
0.08397916667,0.1872615665
0.084,0.187656641
0.08402083333,0.18818973
0.08404166667,0.1893086433
0.0840625,0.1911665648
0.08408333333,0.1932474226
0.08410416667,0.1961119026
0.084125,0.1994536519
0.08414583333,0.2030944228
0.08416666667,0.2072129399
0.0841875,0.2114775777
0.08420833333,0.2160682231
0.08422916667,0.2209498733
0.08425,0.2259992808
0.08427083333,0.2310853153
0.08429166667,0.236230433
0.0843125,0.2415028363
0.08433333333,0.2466294318
0.08435416667,0.2516954839
0.084375,0.2567427456
0.08439583333,0.2616476119
0.08441666667,0.2664342523
0.0844375,0.2709948123
0.08445833333,0.2754594982
0.08447916667,0.2797783911
0.0845,0.2838824391
0.08452083333,0.2880294919
0.08454166667,0.2921128273
0.0845625,0.2960051894
0.08458333333,0.2998820841
0.08460416667,0.3037127256
0.084625,0.3074771464
0.08464583333,0.3112916946
0.08466666667,0.3151437938
0.0846875,0.3189359903
0.08470833333,0.3228731751
0.08472916667,0.3267479539
0.08475,0.3305769861
0.08477083333,0.3343502581
0.08479166667,0.3380478919
0.0848125,0.3416254818
0.08483333333,0.3451344073
0.08485416667,0.3483924568
0.084875,0.3514384627
0.08489583333,0.3542734683
0.08491666667,0.3569159806
0.0849375,0.3592701852
0.08495833333,0.3613470197
0.08497916667,0.3632197082
0.085,0.3647144735
0.08502083333,0.3658333719
0.08504166667,0.3667251468
0.0850625,0.3672305346
0.08508333333,0.367374599
0.08510416667,0.3672305346
0.085125,0.3668451309
0.08514583333,0.3660453558
0.08516666667,0.365106225
0.0851875,0.3638216853
0.08520833333,0.3623754382
0.08522916667,0.3607864082
0.08525,0.3590536118
0.08527083333,0.3572156131
0.08529166667,0.3552969098
0.0853125,0.3532138765
0.08533333333,0.3511924446
0.08535416667,0.3491548002
0.085375,0.3469722271
0.08539583333,0.3447431624
0.08541666667,0.3425081074
0.0854375,0.3402969837
0.08545833333,0.3381755948
0.08547916667,0.3360540867
0.0855,0.3339878619
0.08552083333,0.3319714069
0.08554166667,0.3299499154
0.0855625,0.3280147016
0.08558333333,0.326169014
0.08560416667,0.3244808018
0.085625,0.3229871988
0.08564583333,0.3215885758
0.08566666667,0.3203249574
0.0856875,0.3190737963
0.08570833333,0.3179336786
0.08572916667,0.3168860674
0.08575,0.3159129024
0.08577083333,0.3150920868
0.08579166667,0.3143512011
0.0858125,0.3137455583
0.08583333333,0.313195318
0.08585416667,0.3126931489
0.085875,0.3122410178
0.08589583333,0.3118723929
0.08591666667,0.3116080165
0.0859375,0.3115115762
0.08595833333,0.3114902079
0.08597916667,0.3115992248
0.086,0.3117777407
0.08602083333,0.3119918406
0.08604166667,0.3122599423
0.0860625,0.3127882481
0.08608333333,0.3132392168
0.08610416667,0.3138373196
0.086125,0.3144883513
0.08614583333,0.3152988255
0.08616666667,0.3161459267
0.0861875,0.3170803785
0.08620833333,0.3180615604
0.08622916667,0.3190822601
0.08625,0.3201871216
0.08627083333,0.3213315606
0.08629166667,0.3224499524
0.0863125,0.3236452937
0.08633333333,0.3247922063
0.08635416667,0.3259739578
0.086375,0.3270645738
0.08639583333,0.3280756474
0.08641666667,0.3290026486
0.0864375,0.3297685087
0.08645833333,0.330414921
0.08647916667,0.3308724165
0.0865,0.3311884999
0.08652083333,0.3313986957
0.08654166667,0.3314105272
0.0865625,0.3312539756
0.08658333333,0.3309556842
0.08660416667,0.3304493129
0.086625,0.3297424018
0.08664583333,0.3288185596
0.08666666667,0.3276669085
0.0866875,0.3263135552
0.08670833333,0.324870795
0.08672916667,0.3233581185
0.08675,0.3218857944
0.08677083333,0.3203768432
0.08679166667,0.3187820315
0.0868125,0.3173119426
0.08683333333,0.3159870207
0.08685416667,0.3146995604
0.086875,0.3136522174
0.08689583333,0.3129595518
0.08691666667,0.3125039637
0.0869375,0.3124801815
0.08695833333,0.3127153516
0.08697916667,0.3132311702
0.087,0.314242065
0.08702083333,0.3153705895
0.08704166667,0.3169745803
0.0870625,0.31887272
0.08708333333,0.3209775686
0.08710416667,0.3233750463
0.087125,0.3259480596
0.08714583333,0.3288050592
0.08716666667,0.3318172991
0.0871875,0.334924221
0.08720833333,0.3381582797
0.08722916667,0.3412615061
0.08725,0.3444141448
0.08727083333,0.347320646
0.08729166667,0.3500925601
0.0873125,0.3527062237
0.08733333333,0.3551112115
0.08735416667,0.3572478294
0.087375,0.3590688705
0.08739583333,0.360454917
0.08741666667,0.3614112437
0.0874375,0.3617594838
0.08745833333,0.361758709
0.08747916667,0.3613092005
0.0875,0.360514164
0.08752083333,0.3593711555
0.08754166667,0.3578900099
0.0875625,0.3561919034
0.08758333333,0.3543037176
0.08760416667,0.3522141576
0.087625,0.3499710262
0.08764583333,0.3476264775
0.08766666667,0.3452366889
0.0876875,0.3427613974
0.08770833333,0.3403782547
0.08772916667,0.3380683362
0.08775,0.3357131481
0.08777083333,0.3333722055
0.08779166667,0.3310248256
0.0878125,0.3286697567
0.08783333333,0.3262983263
0.08785416667,0.3238241076
0.087875,0.3214742541
0.08789583333,0.3190169334
0.08791666667,0.3165014088
0.0879375,0.314065218
0.08795833333,0.3115206063
0.08797916667,0.3089520633
0.088,0.3064862192
0.08802083333,0.3038915396
0.08804166667,0.3014937937
0.0880625,0.2991370261
0.08808333333,0.2968380749
0.08810416667,0.294768393
0.088125,0.2927755415
0.08814583333,0.2910813391
0.08816666667,0.2895927727
0.0881875,0.2881836295
0.08820833333,0.2871321142
0.08822916667,0.2862525582
0.08825,0.2856866419
0.08827083333,0.2854446173
0.08829166667,0.2854227722
0.0883125,0.2857090533
0.08833333333,0.2863199115
0.08835416667,0.2871212661
0.088375,0.2881303132
0.08839583333,0.2893336117
0.08841666667,0.2906213403
0.0884375,0.2919716239
0.08845833333,0.2933816612
0.08847916667,0.2947323024
0.0885,0.2960473895
0.08852083333,0.297293067
0.08854166667,0.2984535396
0.0885625,0.2994384468
0.08858333333,0.3001972437
0.08860416667,0.3008502126
0.088625,0.3012411296
0.08864583333,0.3015144169
0.08866666667,0.3015501499
0.0886875,0.3013325632
0.08870833333,0.3008438349
0.08872916667,0.3001136482
0.08875,0.2991335988
0.08877083333,0.2979370654
0.08879166667,0.2964584231
0.0888125,0.2949085236
0.08883333333,0.2933248281
0.08885416667,0.2916183174
0.088875,0.2899279296
0.08889583333,0.2882241309
0.08891666667,0.2865084708
0.0889375,0.284889102
0.08895833333,0.2832434475
0.08897916667,0.2816475034
0.089,0.2800523341
0.08902083333,0.2785142958
0.08904166667,0.2769805491
0.0890625,0.2754996419
0.08908333333,0.2740682662
0.08910416667,0.2726922035
0.089125,0.2712281942
0.08914583333,0.2699282765
0.08916666667,0.2687034905
0.0891875,0.2676182091
0.08920833333,0.2666650712
0.08922916667,0.2657972574
0.08925,0.2650039792
0.08927083333,0.2643375099
0.08929166667,0.26367414
0.0893125,0.2631562054
0.08933333333,0.2626713216
0.08935416667,0.2622487545
0.089375,0.2618463337
0.08939583333,0.2615175843
0.08941666667,0.2610814273
0.0894375,0.2606336772
0.08945833333,0.2599709034
0.08947916667,0.2591636777
0.0895,0.2583200336
0.08952083333,0.2573348284
0.08954166667,0.2561483085
0.0895625,0.2549234331
0.08958333333,0.2535043955
0.08960416667,0.252030313
0.089625,0.2502832711
0.08964583333,0.2484602779
0.08966666667,0.2465662807
0.0896875,0.2447358668
0.08970833333,0.2427312732
0.08972916667,0.2407016754
0.08975,0.2387181222
0.08977083333,0.2366741449
0.08979166667,0.2347019166
0.0898125,0.2326366305
0.08983333333,0.230483532
0.08985416667,0.2284263074
0.089875,0.2261780053
0.08989583333,0.2239625603
0.08991666667,0.2216493189
0.0899375,0.2193597853
0.08995833333,0.2170540839
0.08997916667,0.2146243006
0.09,0.2120853215
0.09002083333,0.2093517482
0.09004166667,0.2064340115
0.0900625,0.2033464462
0.09008333333,0.2001221031
0.09010416667,0.196715042
0.090125,0.1931558996
0.09014583333,0.1894908845
0.09016666667,0.1857934296
0.0901875,0.1819442213
0.09020833333,0.1780488938
0.09022916667,0.1742265821
0.09025,0.1702478975
0.09027083333,0.166306138
0.09029166667,0.1625373214
0.0903125,0.1587663889
0.09033333333,0.1551881433
0.09035416667,0.1516135186
0.090375,0.1482247263
0.09039583333,0.1449188739
0.09041666667,0.1416758895
0.0904375,0.1385315955
0.09045833333,0.1354711503
0.09047916667,0.1324719638
0.0905,0.1296478957
0.09052083333,0.1268550605
0.09054166667,0.1241350695
0.0905625,0.1213582382
0.09058333333,0.1185176075
0.09060416667,0.1156004816
0.090625,0.1125706881
0.09064583333,0.1093844473
0.09066666667,0.1060501561
0.0906875,0.1024323031
0.09070833333,0.09870389849
0.09072916667,0.09476718307
0.09075,0.09071357548
0.09077083333,0.08648359776
0.09079166667,0.08218249679
0.0908125,0.07777063549
0.09083333333,0.0734577775
0.09085416667,0.06922057271
0.090875,0.06505795568
0.09089583333,0.06115733087
0.09091666667,0.05743830279
0.0909375,0.05381607264
0.09095833333,0.05046040192
0.09097916667,0.0472111553
0.091,0.04425662383
0.09102083333,0.04167142883
0.09104166667,0.03958574682
0.0910625,0.03788319975
0.09108333333,0.03647597134
0.09110416667,0.03515502065
0.091125,0.03389715403
0.09114583333,0.03292839229
0.09116666667,0.03226546198
0.0911875,0.03198041394
0.09120833333,0.03213495761
0.09122916667,0.03234085068
0.09125,0.03254472092
0.09127083333,0.03268595785
0.09129166667,0.03283217177
0.0913125,0.03297356516
0.09133333333,0.03317497298
0.09135416667,0.03339795023
0.091375,0.03370986134
0.09139583333,0.03384067863
0.09141666667,0.03363077715
0.0914375,0.03313780949
0.09145833333,0.03226915747
0.09147916667,0.03119490668
0.0915,0.02999049984
0.09152083333,0.02860430069
0.09154166667,0.02713491209
0.0915625,0.02540291846
0.09158333333,0.02341090702
0.09160416667,0.02104284801
0.091625,0.01845318638
0.09164583333,0.0156431403
0.09166666667,0.01261379104
0.0916875,0.009596648626
0.09170833333,0.006346929353
0.09172916667,0.003014370333
0.09175,-0.0005011332687
0.09177083333,-0.004072835669
0.09179166667,-0.007728054654
0.0918125,-0.01156511437
0.09183333333,-0.01535383239
0.09185416667,-0.01940761134
0.091875,-0.02322488278
0.09189583333,-0.02709581144
0.09191666667,-0.03113806807
0.0919375,-0.03506843746
0.09195833333,-0.03913249448
0.09197916667,-0.0430107154
0.092,-0.04697052017
0.09202083333,-0.05080083385
0.09204166667,-0.05458029732
0.0920625,-0.05837414786
0.09208333333,-0.06210885569
0.09210416667,-0.06587664038
0.092125,-0.06968401372
0.09214583333,-0.07339062542
0.09216666667,-0.07699285448
0.0921875,-0.08039090037
0.09220833333,-0.08379132301
0.09222916667,-0.08710706234
0.09225,-0.09049938619
0.09227083333,-0.09380574524
0.09229166667,-0.09715201706
0.0923125,-0.1004196778
0.09233333333,-0.1035811678
0.09235416667,-0.1066884473
0.092375,-0.109752275
0.09239583333,-0.1128213629
0.09241666667,-0.1158910468
0.0924375,-0.1189713404
0.09245833333,-0.1220885888
0.09247916667,-0.1251645535
0.0925,-0.1282099783
0.09252083333,-0.1311542243
0.09254166667,-0.1340910196
0.0925625,-0.1368305534
0.09258333333,-0.1396927238
0.09260416667,-0.1424541622
0.092625,-0.1452087611
0.09264583333,-0.1479083002
0.09266666667,-0.1501779258
0.0926875,-0.1526073515
0.09270833333,-0.1547442079
0.09272916667,-0.1568441838
0.09275,-0.1591492295
0.09277083333,-0.1610804498
0.09279166667,-0.1629216224
0.0928125,-0.1647883654
0.09283333333,-0.1666837484
0.09285416667,-0.1684778035
0.092875,-0.1701010913
0.09289583333,-0.1717106402
0.09291666667,-0.1732796282
0.0929375,-0.1748510003
0.09295833333,-0.1763427854
0.09297916667,-0.1778377295
0.093,-0.1792635322
0.09302083333,-0.1806494445
0.09304166667,-0.181928739
0.0930625,-0.183100462
0.09308333333,-0.1842658222
