time,data
0,2.25715957e-09
2.083333333e-05,6.253727758e-09
4.166666667e-05,1.014739848e-08
6.25e-05,1.388677529e-08
8.333333333e-05,1.76562498e-08
0.0001041666667,2.153672618e-08
0.000125,2.560026324e-08
0.0001458333333,2.980287306e-08
0.0001666666667,3.399393833e-08
0.0001875,3.81755676e-08
0.0002083333333,4.230412642e-08
0.0002291666667,4.658767949e-08
0.00025,5.108486789e-08
0.0002708333333,5.58710731e-08
0.0002916666667,6.086535365e-08
0.0003125,6.589046819e-08
0.0003333333333,7.090851994e-08
0.0003541666667,7.581878947e-08
0.000375,8.078039571e-08
0.0003958333333,8.579240074e-08
0.0004166666667,9.089327335e-08
0.0004375,9.59801767e-08
0.0004583333333,1.008581449e-07
0.0004791666667,1.054909404e-07
0.0005,1.097601583e-07
0.0005208333333,1.138542487e-07
0.0005416666667,1.177869677e-07
0.0005625,1.21684522e-07
0.0005833333333,1.254784365e-07
0.0006041666667,1.290346177e-07
0.000625,1.322884629e-07
0.0006458333333,1.350935293e-07
0.0006666666667,1.376044878e-07
0.0006875,1.398111067e-07
0.0007083333333,1.418591467e-07
0.0007291666667,1.436514623e-07
0.00075,1.449948996e-07
0.0007708333333,1.457463839e-07
0.0007916666667,1.456482011e-07
0.0008125,1.448914873e-07
0.0008333333333,1.43486389e-07
0.0008541666667,1.417367912e-07
0.000875,1.395998197e-07
0.0008958333333,1.369354123e-07
0.0009166666667,1.335878892e-07
0.0009375,1.293264802e-07
0.0009583333333,1.244166015e-07
0.0009791666667,1.19006863e-07
0.001,1.134674505e-07
0.001020833333,1.07777268e-07
0.001041666667,1.016619464e-07
0.0010625,9.484551811e-08
0.001083333333,8.698665255e-08
0.001104166667,7.835724603e-08
0.001125,6.91273101e-08
0.001145833333,5.972992767e-08
0.001166666667,5.006130976e-08
0.0011875,3.986210118e-08
0.001208333333,2.877033722e-08
0.001229166667,1.66026215e-08
0.00125,3.751747801e-09
0.001270833333,-9.402770118e-09
0.001291666667,-2.231376506e-08
0.0013125,-3.505758883e-08
0.001333333333,-4.791038677e-08
0.001354166667,-6.122455432e-08
0.001375,-7.521726531e-08
0.001395833333,-8.941888296e-08
0.001416666667,-1.03579481e-07
0.0014375,-1.171806545e-07
0.001458333333,-1.305085249e-07
0.001479166667,-1.438862398e-07
0.0015,-1.577503923e-07
0.001520833333,-1.722510916e-07
0.001541666667,-1.869304214e-07
0.0015625,-2.01431007e-07
0.001583333333,-2.152441851e-07
0.001604166667,-2.284804168e-07
0.001625,-2.4137114e-07
0.001645833333,-2.541529796e-07
0.001666666667,-2.669120818e-07
0.0016875,-2.791381064e-07
0.001708333333,-2.905658789e-07
0.001729166667,-3.006635438e-07
0.00175,-3.096829175e-07
0.001770833333,-3.177884196e-07
0.001791666667,-3.254550904e-07
0.0018125,-3.328470086e-07
0.001833333333,-3.397460091e-07
0.001854166667,-3.459547315e-07
0.001875,-3.509932469e-07
0.001895833333,-3.549565974e-07
0.001916666667,-3.579626764e-07
0.0019375,-3.603307164e-07
0.001958333333,-3.6233061e-07
0.001979166667,-3.635791472e-07
0.002,-3.638608064e-07
0.002020833333,-3.623779321e-07
0.002041666667,-3.591272275e-07
0.0020625,-3.541386207e-07
0.002083333333,-3.479750035e-07
0.002104166667,-3.41090157e-07
0.002125,-3.334504299e-07
0.002145833333,-3.247864129e-07
0.002166666667,-3.144962477e-07
0.0021875,-3.024539694e-07
0.002208333333,-2.890268433e-07
0.002229166667,-2.748961379e-07
0.00225,-2.607701504e-07
0.002270833333,-2.465120019e-07
0.002291666667,-2.316628382e-07
0.0023125,-2.1522861e-07
0.002333333333,-1.969861785e-07
0.002354166667,-1.770966662e-07
0.002375,-1.564945507e-07
0.002395833333,-1.357086603e-07
0.002416666667,-1.147412974e-07
0.0024375,-9.28729591e-08
0.002458333333,-6.926738649e-08
0.002479166667,-4.378183505e-08
0.0025,-1.704315977e-08
0.002520833333,9.807848755e-09
0.002541666667,3.586082187e-08
0.0025625,6.123521956e-08
0.002583333333,8.647233329e-08
0.002604166667,1.12600155e-07
0.002625,1.395940927e-07
0.002645833333,1.670117342e-07
0.002666666667,1.937404051e-07
0.0026875,2.192821142e-07
0.002708333333,2.438548847e-07
0.002729166667,2.683901528e-07
0.00275,2.937123327e-07
0.002770833333,3.200221101e-07
0.002791666667,3.465720226e-07
0.0028125,3.72441491e-07
0.002833333333,3.968161479e-07
0.002854166667,4.198690533e-07
0.002875,4.420213884e-07
0.002895833333,4.639501867e-07
0.002916666667,4.854950362e-07
0.0029375,5.061303341e-07
0.002958333333,5.248493835e-07
0.002979166667,5.412016435e-07
0.003,5.551806908e-07
0.003020833333,5.675447596e-07
0.003041666667,5.789158877e-07
0.0030625,5.897712185e-07
0.003083333333,5.997398489e-07
0.003104166667,6.083638482e-07
0.003125,6.149256819e-07
0.003145833333,6.194820799e-07
0.003166666667,6.222561524e-07
0.0031875,6.240019275e-07
0.003208333333,6.249136391e-07
0.003229166667,6.248000659e-07
0.00325,6.227575682e-07
0.003270833333,6.179020602e-07
0.003291666667,6.09737242e-07
0.0033125,5.987075156e-07
0.003333333333,5.855470704e-07
0.003354166667,5.713177984e-07
0.003375,5.558410408e-07
0.003395833333,5.388301361e-07
0.003416666667,5.190670436e-07
0.0034375,4.965033895e-07
0.003458333333,4.715907096e-07
0.003479166667,4.457265277e-07
0.0035,4.199799548e-07
0.003520833333,3.943590627e-07
0.003541666667,3.678223663e-07
0.0035625,3.389733649e-07
0.003583333333,3.07007582e-07
0.003604166667,2.726784203e-07
0.003625,2.370776144e-07
0.003645833333,2.016550127e-07
0.003666666667,1.65949487e-07
0.0036875,1.291504788e-07
0.003708333333,8.952328301e-08
0.003729166667,4.707472456e-08
0.00375,2.692138068e-09
0.003770833333,-4.151651467e-08
0.003791666667,-8.4198021e-08
0.0038125,-1.253543616e-07
0.003833333333,-1.661580882e-07
0.003854166667,-2.080358428e-07
0.003875,-2.512721267e-07
0.003895833333,-2.947151359e-07
0.003916666667,-3.369748924e-07
0.0039375,-3.767232784e-07
0.003958333333,-4.149677295e-07
0.003979166667,-4.526358737e-07
0.004,-4.917432079e-07
0.004020833333,-5.319710112e-07
0.004041666667,-5.725792676e-07
0.0040625,-6.116435998e-07
0.004083333333,-6.481485002e-07
0.004104166667,-6.82260918e-07
0.004125,-7.148283885e-07
0.004145833333,-7.468404419e-07
0.004166666667,-7.781553677e-07
0.0041875,-8.076193581e-07
0.004208333333,-8.339921465e-07
0.004229166667,-8.560601259e-07
0.00425,-8.745943205e-07
0.004270833333,-8.900603916e-07
0.004291666667,-9.043881164e-07
0.0043125,-9.173628541e-07
0.004333333333,-9.292337495e-07
0.004354166667,-9.384925193e-07
0.004375,-9.446093259e-07
0.004395833333,-9.474309763e-07
0.004416666667,-9.474933904e-07
0.0044375,-9.460854926e-07
0.004458333333,-9.433290984e-07
0.004479166667,-9.389541447e-07
0.0045,-9.315833722e-07
0.004520833333,-9.194837958e-07
0.004541666667,-9.026792327e-07
0.0045625,-8.80902121e-07
0.004583333333,-8.566814813e-07
0.004604166667,-8.302084211e-07
0.004625,-8.025733109e-07
0.004645833333,-7.720695407e-07
0.004666666667,-7.376999065e-07
0.0046875,-6.989940289e-07
0.004708333333,-6.568235449e-07
0.004729166667,-6.13657221e-07
0.00475,-5.707439072e-07
0.004770833333,-5.284003919e-07
0.004791666667,-4.848146773e-07
0.0048125,-4.375820879e-07
0.004833333333,-3.862243716e-07
0.004854166667,-3.308093994e-07
0.004875,-2.74644151e-07
0.004895833333,-2.181558614e-07
0.004916666667,-1.624227934e-07
0.0049375,-1.04491356e-07
0.004958333333,-4.298517808e-08
0.004979166667,2.284420475e-08
0.005,9.129679768e-08
0.005020833333,1.589032337e-07
0.005041666667,2.241026777e-07
0.0050625,2.863173734e-07
0.005083333333,3.478329518e-07
0.005104166667,4.107624534e-07
0.005125,4.75066031e-07
0.005145833333,5.400638088e-07
0.005166666667,6.019778311e-07
0.0051875,6.608686931e-07
0.005208333333,7.160019777e-07
0.005229166667,7.709779197e-07
0.00525,8.269961995e-07
0.005270833333,8.849303299e-07
0.005291666667,9.429896863e-07
0.0053125,9.983707514e-07
0.005333333333,1.049970024e-06
0.005354166667,1.09727057e-06
0.005375,1.142292035e-06
0.005395833333,1.185992005e-06
0.005416666667,1.228245424e-06
0.0054375,1.268061737e-06
0.005458333333,1.302228611e-06
0.005479166667,1.331061071e-06
0.0055,1.353000812e-06
0.005520833333,1.371566782e-06
0.005541666667,1.386877216e-06
0.0055625,1.400968358e-06
0.005583333333,1.412837264e-06
0.005604166667,1.420920853e-06
0.005625,1.424745847e-06
0.005645833333,1.422990749e-06
0.005666666667,1.417692602e-06
0.0056875,1.409483161e-06
0.005708333333,1.399351731e-06
0.005729166667,1.387221914e-06
0.00575,1.369959477e-06
0.005770833333,1.347314083e-06
0.005791666667,1.316099087e-06
0.0058125,1.279383582e-06
0.005833333333,1.23728114e-06
0.005854166667,1.193226581e-06
0.005875,1.146822228e-06
0.005895833333,1.096764436e-06
0.005916666667,1.041710334e-06
0.0059375,9.798363863e-07
0.005958333333,9.138862538e-07
0.005979166667,8.457112699e-07
0.006,7.784612421e-07
0.006020833333,7.123906585e-07
0.006041666667,6.44189754e-07
0.0060625,5.724962762e-07
0.006083333333,4.932788329e-07
0.006104166667,4.105204141e-07
0.006125,3.246631195e-07
0.006145833333,2.403405404e-07
0.006166666667,1.561711116e-07
0.0061875,6.987568213e-08
0.006208333333,-2.094806106e-08
0.006229166667,-1.182679625e-07
0.00625,-2.180523353e-07
0.006270833333,-3.174374399e-07
0.006291666667,-4.123623114e-07
0.0063125,-5.028495025e-07
0.006333333333,-5.923566277e-07
0.006354166667,-6.821860552e-07
0.006375,-7.753986893e-07
0.006395833333,-8.670083957e-07
0.006416666667,-9.563503909e-07
0.0064375,-1.038836899e-06
0.006458333333,-1.117407805e-06
0.006479166667,-1.194195306e-06
0.0065,-1.272409804e-06
0.006520833333,-1.35333471e-06
0.006541666667,-1.433157195e-06
0.0065625,-1.510108632e-06
0.006583333333,-1.580181788e-06
0.006604166667,-1.644583449e-06
0.006625,-1.705339741e-06
0.006645833333,-1.763080377e-06
0.006666666667,-1.820182888e-06
0.0066875,-1.871148584e-06
0.006708333333,-1.916676865e-06
0.006729166667,-1.951538707e-06
0.00675,-1.978881528e-06
0.006770833333,-1.99946976e-06
0.006791666667,-2.016195822e-06
0.0068125,-2.03110767e-06
0.006833333333,-2.041867901e-06
0.006854166667,-2.04843127e-06
0.006875,-2.047232101e-06
0.006895833333,-2.039213769e-06
0.006916666667,-2.025525873e-06
0.0069375,-2.007405783e-06
0.006958333333,-1.987988298e-06
0.006979166667,-1.963376917e-06
0.007,-1.934474085e-06
0.007020833333,-1.894484512e-06
0.007041666667,-1.845576662e-06
0.0070625,-1.786442454e-06
0.007083333333,-1.721565468e-06
0.007104166667,-1.653718073e-06
0.007125,-1.582070468e-06
0.007145833333,-1.50678818e-06
0.007166666667,-1.422537821e-06
0.0071875,-1.33054948e-06
0.007208333333,-1.231825991e-06
0.007229166667,-1.13046076e-06
0.00725,-1.031764441e-06
0.007270833333,-9.326320196e-07
0.007291666667,-8.338598718e-07
0.0073125,-7.264007422e-07
0.007333333333,-6.123447065e-07
0.007354166667,-4.903488957e-07
0.007375,-3.666877433e-07
0.007395833333,-2.446384713e-07
0.007416666667,-1.228274868e-07
0.0074375,3.318011144e-10
0.007458333333,1.316839047e-07
0.007479166667,2.697894956e-07
0.0075,4.126454769e-07
0.007520833333,5.539052381e-07
0.007541666667,6.879141097e-07
0.0075625,8.173832384e-07
0.007583333333,9.421338518e-07
0.007604166667,1.07109372e-06
0.007625,1.200454221e-06
0.007645833333,1.331220119e-06
0.007666666667,1.455541906e-06
0.0076875,1.571821826e-06
0.007708333333,1.681883077e-06
0.007729166667,1.788345799e-06
0.00775,1.898343385e-06
0.007770833333,2.009586524e-06
0.007791666667,2.12125201e-06
0.0078125,2.227229515e-06
0.007833333333,2.323684384e-06
0.007854166667,2.413256425e-06
0.007875,2.494824002e-06
0.007895833333,2.576031648e-06
0.007916666667,2.651576779e-06
0.0079375,2.723336365e-06
0.007958333333,2.783524906e-06
0.007979166667,2.831784968e-06
0.008,2.868398497e-06
0.008020833333,2.895204943e-06
0.008041666667,2.918323389e-06
0.0080625,2.936310466e-06
0.008083333333,2.951217084e-06
0.008104166667,2.958285449e-06
0.008125,2.955631089e-06
0.008145833333,2.944268545e-06
0.008166666667,2.922747171e-06
0.0081875,2.898822231e-06
0.008208333333,2.868189995e-06
0.008229166667,2.835644864e-06
0.00825,2.792520945e-06
0.008270833333,2.738358262e-06
0.008291666667,2.670046342e-06
0.0083125,2.588463758e-06
0.008333333333,2.500324854e-06
0.008354166667,2.405565738e-06
0.008375,2.308759122e-06
0.008395833333,2.204277735e-06
0.008416666667,2.089847158e-06
0.0084375,1.965029014e-06
0.008458333333,1.829575126e-06
0.008479166667,1.694061893e-06
0.0085,1.556885422e-06
0.008520833333,1.424752213e-06
0.008541666667,1.287495479e-06
0.0085625,1.143661166e-06
0.008583333333,9.882113545e-07
0.008604166667,8.23604978e-07
0.008625,6.574941835e-07
0.008645833333,4.910526172e-07
0.008666666667,3.28059258e-07
0.0086875,1.600728154e-07
0.008708333333,-1.586827736e-08
0.008729166667,-2.013749167e-07
0.00875,-3.938013435e-07
0.008770833333,-5.811356232e-07
0.008791666667,-7.638566899e-07
0.0088125,-9.348491403e-07
0.008833333333,-1.105917022e-06
0.008854166667,-1.276603598e-06
0.008875,-1.45178376e-06
0.008895833333,-1.626229277e-06
0.008916666667,-1.79231597e-06
0.0089375,-1.949829993e-06
0.008958333333,-2.096136996e-06
0.008979166667,-2.241524271e-06
0.009,-2.388034773e-06
0.009020833333,-2.537817636e-06
0.009041666667,-2.687866299e-06
0.0090625,-2.828031256e-06
0.009083333333,-2.960217671e-06
0.009104166667,-3.077602514e-06
0.009125,-3.191325732e-06
0.009145833333,-3.298135198e-06
0.009166666667,-3.402619768e-06
0.0091875,-3.498588057e-06
0.009208333333,-3.580549674e-06
0.009229166667,-3.648018264e-06
0.00925,-3.697873581e-06
0.009270833333,-3.738847681e-06
0.009291666667,-3.771461934e-06
0.0093125,-3.800151717e-06
0.009333333333,-3.823494353e-06
0.009354166667,-3.835389634e-06
0.009375,-3.837946679e-06
0.009395833333,-3.823900443e-06
0.009416666667,-3.8036967e-06
0.0094375,-3.773365279e-06
0.009458333333,-3.740989314e-06
0.009479166667,-3.700995194e-06
0.0095,-3.649826567e-06
0.009520833333,-3.584114438e-06
0.009541666667,-3.498076467e-06
0.0095625,-3.399033631e-06
0.009583333333,-3.287429536e-06
0.009604166667,-3.17142667e-06
0.009625,-3.050374062e-06
0.009645833333,-2.919268582e-06
0.009666666667,-2.777794862e-06
0.0096875,-2.617864538e-06
0.009708333333,-2.451391083e-06
0.009729166667,-2.277315843e-06
0.00975,-2.108743047e-06
0.009770833333,-1.940394213e-06
0.009791666667,-1.769151936e-06
0.0098125,-1.587895326e-06
0.009833333333,-1.390416401e-06
0.009854166667,-1.184717462e-06
0.009875,-9.72847829e-07
0.009895833333,-7.653257512e-07
0.009916666667,-5.587684768e-07
0.0099375,-3.470082675e-07
0.009958333333,-1.2622084e-07
0.009979166667,1.110607073e-07
0.01,3.568416957e-07
0.01002083333,6.130985639e-07
0.01004166667,8.447424307e-07
0.0100625,1.056145948e-06
0.01008333333,1.257125064e-06
0.01010416667,1.462117552e-06
0.010125,1.678173248e-06
0.01014583333,1.901927931e-06
0.01016666667,2.12091436e-06
0.0101875,2.323464514e-06
0.01020833333,2.511132607e-06
0.01022916667,2.691701638e-06
0.01025,2.871701327e-06
0.01027083333,3.060905328e-06
0.01029166667,3.25106862e-06
0.0103125,3.441463832e-06
0.01033333333,3.615748483e-06
0.01035416667,3.7790428e-06
0.010375,3.925143574e-06
0.01039583333,4.062140306e-06
0.01041666667,4.18722675e-06
0.0104375,4.297190117e-06
0.01045833333,4.396978966e-06
0.01047916667,4.482943041e-06
0.0105,4.558706678e-06
0.01052083333,4.62660546e-06
0.01054166667,4.684360647e-06
0.0105625,4.733322839e-06
0.01058333333,4.764684945e-06
0.01060416667,4.781986718e-06
0.010625,4.779837127e-06
0.01064583333,4.772338343e-06
0.01066666667,4.752604582e-06
0.0106875,4.731251011e-06
0.01070833333,4.700543741e-06
0.01072916667,4.6601549e-06
0.01075,4.604095466e-06
0.01077083333,4.524461019e-06
0.01079166667,4.426768555e-06
0.0108125,4.311141765e-06
0.01083333333,4.186817023e-06
0.01085416667,4.060942501e-06
0.010875,3.926901627e-06
0.01089583333,3.786505886e-06
0.01091666667,3.615860805e-06
0.0109375,3.427882575e-06
0.01095833333,3.21369771e-06
0.01097916667,3.003361371e-06
0.011,2.79779988e-06
0.01102083333,2.604068413e-06
0.01104166667,2.419195425e-06
0.0110625,2.216215762e-06
0.01108333333,1.994839977e-06
0.01110416667,1.749577336e-06
0.011125,1.491299599e-06
0.01114583333,1.237113111e-06
0.01116666667,9.877571756e-07
0.0111875,7.496362855e-07
0.01120833333,4.942671126e-07
0.01122916667,2.273022943e-07
0.01125,-5.945545567e-08
0.01127083333,-3.492905023e-07
0.01129166667,-6.336458114e-07
0.0113125,-8.990262472e-07
0.01133333333,-1.151874699e-06
0.01135416667,-1.401118993e-06
0.011375,-1.649856927e-06
0.01139583333,-1.900857228e-06
0.01141666667,-2.147643499e-06
0.0114375,-2.385288781e-06
0.01145833333,-2.618288818e-06
0.01147916667,-2.84056614e-06
0.0115,-3.07014011e-06
0.01152083333,-3.292657084e-06
0.01154166667,-3.515904837e-06
0.0115625,-3.723266445e-06
0.01158333333,-3.916118203e-06
0.01160416667,-4.098648787e-06
0.011625,-4.268914836e-06
0.01164583333,-4.437671578e-06
0.01166666667,-4.601266028e-06
0.0116875,-4.750507287e-06
0.01170833333,-4.880870165e-06
0.01172916667,-4.983601684e-06
0.01175,-5.064872312e-06
0.01177083333,-5.129206329e-06
0.01179166667,-5.190966931e-06
0.0118125,-5.242283351e-06
0.01183333333,-5.294692073e-06
0.01185416667,-5.329548003e-06
0.011875,-5.346399121e-06
0.01189583333,-5.349031653e-06
0.01191666667,-5.327840427e-06
0.0119375,-5.295602932e-06
0.01195833333,-5.254985808e-06
0.01197916667,-5.203697128e-06
0.012,-5.147877346e-06
0.01202083333,-5.064255674e-06
0.01204166667,-4.965827429e-06
0.0120625,-4.838311725e-06
0.01208333333,-4.700750196e-06
0.01210416667,-4.538665962e-06
0.012125,-4.369250291e-06
0.01214583333,-4.197229828e-06
0.01216666667,-4.020574124e-06
0.0121875,-3.82511962e-06
0.01220833333,-3.618185474e-06
0.01222916667,-3.397546379e-06
0.01225,-3.177077815e-06
0.01227083333,-2.947143912e-06
0.01229166667,-2.709903129e-06
0.0123125,-2.45917704e-06
0.01233333333,-2.208271553e-06
0.01235416667,-1.93206165e-06
0.012375,-1.654087328e-06
0.01239583333,-1.373502414e-06
0.01241666667,-1.097213726e-06
0.0124375,-8.082149634e-07
0.01245833333,-5.159192824e-07
0.01247916667,-2.102724039e-07
0.0125,9.963157765e-08
0.01252083333,4.043352249e-07
0.01254166667,6.995182389e-07
0.0125625,9.91843649e-07
0.01258333333,1.27655187e-06
0.01260416667,1.566763785e-06
0.012625,1.856510153e-06
0.01264583333,2.145290864e-06
0.01266666667,2.415297786e-06
0.0126875,2.681992555e-06
0.01270833333,2.936722694e-06
0.01272916667,3.189537665e-06
0.01275,3.440793307e-06
0.01277083333,3.699756462e-06
0.01279166667,3.936278972e-06
0.0128125,4.160790468e-06
0.01283333333,4.3683699e-06
0.01285416667,4.56410271e-06
0.012875,4.759905096e-06
0.01289583333,4.95391032e-06
0.01291666667,5.127942586e-06
0.0129375,5.279463949e-06
0.01295833333,5.404735475e-06
0.01297916667,5.507777587e-06
0.013,5.592546131e-06
0.01302083333,5.685096312e-06
0.01304166667,5.764657999e-06
0.0130625,5.839067853e-06
0.01308333333,5.882754522e-06
0.01310416667,5.891003639e-06
0.013125,5.883744052e-06
0.01314583333,5.865525509e-06
0.01316666667,5.842651717e-06
0.0131875,5.828114354e-06
0.01320833333,5.79596599e-06
0.01322916667,5.741821951e-06
0.01325,5.659926956e-06
0.01327083333,5.536090612e-06
0.01329166667,5.38755512e-06
0.0133125,5.254131338e-06
0.01333333333,5.115311978e-06
0.01335416667,4.968406756e-06
0.013375,4.804081527e-06
0.01339583333,4.606806215e-06
0.01341666667,4.378326594e-06
0.0134375,4.121913662e-06
0.01345833333,3.848317647e-06
0.01347916667,3.608102816e-06
0.0135,3.369122169e-06
0.01352083333,3.146963309e-06
0.01354166667,2.903256245e-06
0.0135625,2.641134188e-06
0.01358333333,2.339933872e-06
0.01360416667,2.020741022e-06
0.013625,1.692954356e-06
0.01364583333,1.387231237e-06
0.01366666667,1.096383016e-06
0.0136875,8.148010124e-07
0.01370833333,5.146937951e-07
0.01372916667,1.974002402e-07
0.01375,-1.603389137e-07
0.01377083333,-5.39288294e-07
0.01379166667,-9.083505006e-07
0.0138125,-1.247305022e-06
0.01383333333,-1.546500016e-06
0.01385416667,-1.820901048e-06
0.013875,-2.110887863e-06
0.01389583333,-2.394798912e-06
0.01391666667,-2.69262523e-06
0.0139375,-2.995149316e-06
0.01395833333,-3.2865305e-06
0.01397916667,-3.569982027e-06
0.014,-3.833451956e-06
0.01402083333,-4.068607723e-06
0.01404166667,-4.297305622e-06
0.0140625,-4.512773103e-06
0.01408333333,-4.729373813e-06
0.01410416667,-4.942511623e-06
0.014125,-5.180132121e-06
0.01414583333,-5.42057569e-06
0.01416666667,-5.631906333e-06
0.0141875,-5.798183793e-06
0.01420833333,-5.891804904e-06
0.01422916667,-5.934542969e-06
0.01425,-5.978184618e-06
0.01427083333,-6.027239124e-06
0.01429166667,-6.127941106e-06
0.0143125,-6.245721579e-06
0.01433333333,-6.325264167e-06
0.01435416667,-6.32398087e-06
0.014375,-6.237475645e-06
0.01439583333,-6.136438515e-06
0.01441666667,-6.066334663e-06
0.0144375,-6.029978522e-06
0.01445833333,-6.051393939e-06
0.01447916667,-6.04963634e-06
0.0145,-5.996785603e-06
0.01452083333,-5.840453014e-06
0.01454166667,-5.614225302e-06
0.0145625,-5.358716407e-06
0.01458333333,-5.132478236e-06
0.01460416667,-4.941718089e-06
0.014625,-4.799401722e-06
0.01464583333,-4.635956884e-06
0.01466666667,-4.445306331e-06
0.0146875,-4.180310953e-06
0.01470833333,-3.859306617e-06
0.01472916667,-3.514592436e-06
0.01475,-3.184311481e-06
0.01477083333,-2.875034397e-06
0.01479166667,-2.599619847e-06
0.0148125,-2.350462864e-06
0.01483333333,-2.085274673e-06
0.01485416667,-1.754691198e-06
0.014875,-1.362524358e-06
0.01489583333,-9.731847967e-07
0.01491666667,-5.858215673e-07
0.0149375,-2.408599471e-07
0.01495833333,4.239090146e-08
0.01497916667,3.202662242e-07
0.015,5.985412486e-07
0.01502083333,9.546666888e-07
0.01504166667,1.356897201e-06
0.0150625,1.789188445e-06
0.01508333333,2.224197488e-06
0.01510416667,2.644529559e-06
0.015125,2.99659132e-06
0.01514583333,3.299468517e-06
0.01516666667,3.555568355e-06
0.0151875,3.797404588e-06
0.01520833333,4.030912351e-06
0.01522916667,4.279152563e-06
0.01525,4.533050287e-06
0.01527083333,4.831485057e-06
0.01529166667,5.128382327e-06
0.0153125,5.404743206e-06
0.01533333333,5.642509677e-06
0.01535416667,5.854310075e-06
0.015375,5.995231277e-06
0.01539583333,6.200639291e-06
0.01541666667,6.41696306e-06
0.0154375,6.631983524e-06
0.01545833333,6.818022484e-06
0.01547916667,6.919817679e-06
0.0155,6.947395832e-06
0.01552083333,6.894472335e-06
0.01554166667,6.856912933e-06
0.0155625,6.844652944e-06
0.01558333333,6.874787232e-06
0.01560416667,6.940598269e-06
0.015625,6.949891031e-06
0.01564583333,6.953747288e-06
0.01566666667,6.890140412e-06
0.0156875,6.792124623e-06
0.01570833333,6.679512808e-06
0.01572916667,6.570177447e-06
0.01575,6.420276804e-06
0.01577083333,6.230656709e-06
0.01579166667,6.01710417e-06
0.0158125,5.770216831e-06
0.01583333333,5.564814273e-06
0.01585416667,5.355080702e-06
0.015875,5.154688097e-06
0.01589583333,4.93282505e-06
0.01591666667,4.628542229e-06
0.0159375,4.309675205e-06
0.01595833333,3.91417916e-06
0.01597916667,3.568500006e-06
0.016,3.227499974e-06
0.01602083333,2.930191613e-06
0.01604166667,2.629252322e-06
0.0160625,2.327258244e-06
0.01608333333,1.967540356e-06
0.01610416667,1.518113208e-06
0.016125,1.072886448e-06
0.01614583333,6.298793096e-07
0.01616666667,2.699556205e-07
0.0161875,-6.075251946e-08
0.01620833333,-3.599137983e-07
0.01622916667,-6.585636925e-07
0.01625,-1.054312975e-06
0.01627083333,-1.501214911e-06
0.01629166667,-2.038940693e-06
0.0163125,-2.535673048e-06
0.01633333333,-2.963935685e-06
0.01635416667,-3.287357004e-06
0.016375,-3.546032985e-06
0.01639583333,-3.805105962e-06
0.01641666667,-4.073528544e-06
0.0164375,-4.408324912e-06
0.01645833333,-4.770606665e-06
0.01647916667,-5.21244101e-06
0.0165,-5.566743766e-06
0.01652083333,-5.830048849e-06
0.01654166667,-6.041084362e-06
0.0165625,-6.182162451e-06
0.01658333333,-6.392922387e-06
0.01660416667,-6.566218872e-06
0.016625,-6.867938282e-06
0.01664583333,-7.143856692e-06
0.01666666667,-7.41576423e-06
0.0166875,-7.598404864e-06
0.01670833333,-7.662091775e-06
0.01672916667,-7.687824109e-06
0.01675,-7.633325367e-06
0.01677083333,-7.594627277e-06
0.01679166667,-7.64793549e-06
0.0168125,-7.75027911e-06
0.01683333333,-7.834684766e-06
0.01685416667,-7.87413228e-06
0.016875,-7.800542335e-06
0.01689583333,-7.597862805e-06
0.01691666667,-7.398704838e-06
0.0169375,-7.191179066e-06
0.01695833333,-7.1174818e-06
0.01697916667,-7.105859368e-06
0.017,-7.133050076e-06
0.01702083333,-7.054001799e-06
0.01704166667,-6.824809589e-06
0.0170625,-6.47825118e-06
0.01708333333,-6.005820069e-06
0.01710416667,-5.568550023e-06
0.017125,-5.190219326e-06
0.01714583333,-4.921819709e-06
0.01716666667,-4.718347554e-06
0.0171875,-4.468653515e-06
0.01720833333,-4.178603376e-06
0.01722916667,-3.76721664e-06
0.01725,-3.327260401e-06
0.01727083333,-2.864269618e-06
0.01729166667,-2.458931476e-06
0.0173125,-2.129600034e-06
0.01733333333,-1.842245524e-06
0.01735416667,-1.545339728e-06
0.017375,-1.146114073e-06
0.01739583333,-6.468158631e-07
0.01741666667,-2.613522554e-08
0.0174375,6.433053272e-07
0.01745833333,1.214152917e-06
0.01747916667,1.682036896e-06
0.0175,2.014495294e-06
0.01752083333,2.17759407e-06
0.01754166667,2.406925887e-06
0.0175625,2.768481636e-06
0.01758333333,3.258939387e-06
0.01760416667,3.830785772e-06
0.017625,4.461256594e-06
0.01764583333,4.907414677e-06
0.01766666667,5.226906978e-06
0.0176875,5.450163371e-06
0.01770833333,5.683345989e-06
0.01772916667,5.984037671e-06
0.01775,6.384489097e-06
0.01777083333,6.832673989e-06
0.01779166667,7.16298473e-06
0.0178125,7.471403933e-06
0.01783333333,7.636982446e-06
0.01785416667,7.805243513e-06
0.017875,7.920707503e-06
0.01789583333,8.113884178e-06
0.01791666667,8.314071238e-06
0.0179375,8.545809578e-06
0.01795833333,8.803461242e-06
0.01797916667,9.024233805e-06
0.018,9.173068065e-06
0.01802083333,9.20079674e-06
0.01804166667,9.073090951e-06
0.0180625,8.98716371e-06
0.01808333333,8.805421203e-06
0.01810416667,8.716274351e-06
0.018125,8.644664376e-06
0.01814583333,8.677761798e-06
0.01816666667,8.74185298e-06
0.0181875,8.711017472e-06
0.01820833333,8.574524145e-06
0.01822916667,8.360892025e-06
0.01825,8.117556717e-06
0.01827083333,7.802343134e-06
0.01829166667,7.589139841e-06
0.0183125,7.337073384e-06
0.01833333333,7.114995697e-06
0.01835416667,6.917884093e-06
0.018375,6.540031336e-06
0.01839583333,6.171066616e-06
0.01841666667,5.714053714e-06
0.0184375,5.213223631e-06
0.01845833333,4.746025752e-06
0.01847916667,4.334160622e-06
0.0185,4.072426236e-06
0.01852083333,3.789670473e-06
0.01854166667,3.497598527e-06
0.0185625,3.014213689e-06
0.01858333333,2.540383093e-06
0.01860416667,1.95051166e-06
0.018625,1.346237696e-06
0.01864583333,8.658020079e-07
0.01866666667,4.303893775e-07
0.0186875,1.014555409e-07
0.01870833333,-3.113318598e-07
0.01872916667,-7.176710142e-07
0.01875,-1.251351591e-06
0.01877083333,-1.801698659e-06
0.01879166667,-2.345659368e-06
0.0188125,-2.923970214e-06
0.01883333333,-3.300483741e-06
0.01885416667,-3.723626151e-06
0.018875,-4.058086233e-06
0.01889583333,-4.436037671e-06
0.01891666667,-4.861043635e-06
0.0189375,-5.280944151e-06
0.01895833333,-5.767397397e-06
0.01897916667,-6.216226666e-06
0.019,-6.617475265e-06
0.01902083333,-6.862116606e-06
0.01904166667,-7.108702448e-06
0.0190625,-7.295991963e-06
0.01908333333,-7.495346836e-06
0.01910416667,-7.769409422e-06
0.019125,-8.10698657e-06
0.01914583333,-8.483800229e-06
0.01916666667,-8.74415673e-06
0.0191875,-8.946933121e-06
0.01920833333,-9.036376468e-06
0.01922916667,-8.962583706e-06
0.01925,-9.042261809e-06
0.01927083333,-9.134968423e-06
0.01929166667,-9.334285096e-06
0.0193125,-9.553657037e-06
0.01933333333,-9.622807738e-06
0.01935416667,-9.478723769e-06
0.019375,-9.224722817e-06
0.01939583333,-8.888954653e-06
0.01941666667,-8.662826076e-06
0.0194375,-8.633276593e-06
0.01945833333,-8.738512406e-06
0.01947916667,-8.866210919e-06
0.0195,-8.83894154e-06
0.01952083333,-8.558439731e-06
0.01954166667,-8.166133739e-06
0.0195625,-7.623782949e-06
0.01958333333,-7.199133961e-06
0.01960416667,-6.857981134e-06
0.019625,-6.648400813e-06
0.01964583333,-6.475298505e-06
0.01966666667,-6.205722002e-06
0.0196875,-5.924298875e-06
0.01970833333,-5.436429547e-06
0.01972916667,-4.893856385e-06
0.01975,-4.375459866e-06
0.01977083333,-3.864025075e-06
0.01979166667,-3.610169415e-06
0.0198125,-3.354293312e-06
0.01983333333,-3.079446742e-06
0.01985416667,-2.686626203e-06
0.019875,-2.039497986e-06
0.01989583333,-1.211688073e-06
0.01991666667,-3.625111162e-07
0.0199375,3.705273457e-07
0.01995833333,8.597667147e-07
0.01997916667,9.499449334e-07
0.02,9.160964964e-07
0.02002083333,9.941121561e-07
0.02004166667,1.335369234e-06
0.0200625,1.884132416e-06
0.02008333333,2.589658834e-06
0.02010416667,3.183844683e-06
0.020125,3.652430223e-06
0.02014583333,4.017393167e-06
0.02016666667,4.270520549e-06
0.0201875,4.662182619e-06
0.02020833333,5.237372079e-06
0.02022916667,5.798759958e-06
0.02025,6.438235232e-06
0.02027083333,6.876230145e-06
0.02029166667,7.16404702e-06
0.0203125,7.304696283e-06
0.02033333333,7.363217719e-06
0.02035416667,7.472817288e-06
0.020375,7.656437447e-06
0.02039583333,7.974965229e-06
0.02041666667,8.245261597e-06
0.0204375,8.611759768e-06
0.02045833333,8.920575056e-06
0.02047916667,9.0017611e-06
0.0205,8.996907127e-06
0.02052083333,8.835842891e-06
0.02054166667,8.778663869e-06
0.0205625,8.749258996e-06
0.02058333333,8.853230611e-06
0.02060416667,8.905053619e-06
0.020625,8.99101633e-06
0.02064583333,8.894942766e-06
0.02066666667,8.611225894e-06
0.0206875,8.421300663e-06
0.02070833333,8.204198821e-06
0.02072916667,8.168463864e-06
0.02075,8.21845515e-06
0.02077083333,8.145999345e-06
0.02079166667,8.019568668e-06
0.0208125,7.740458386e-06
0.02083333333,7.465938779e-06
0.02085416667,7.214770903e-06
0.020875,7.057325547e-06
0.02089583333,6.927869435e-06
0.02091666667,6.830222901e-06
0.0209375,6.712379218e-06
0.02095833333,6.577117347e-06
0.02097916667,6.242019481e-06
0.021,5.751815024e-06
0.02102083333,5.185214377e-06
0.02104166667,4.545201136e-06
0.0210625,4.039707619e-06
0.02108333333,3.440727596e-06
0.02110416667,2.820318059e-06
0.021125,2.247302518e-06
0.02114583333,1.518675163e-06
0.02116666667,8.136866541e-07
0.0211875,-1.32277421e-07
0.02120833333,-8.525410067e-07
0.02122916667,-1.479949788e-06
0.02125,-1.877716613e-06
0.02127083333,-2.15213322e-06
0.02129166667,-2.382887942e-06
0.0213125,-2.79975211e-06
0.02133333333,-3.24842631e-06
0.02135416667,-3.733148787e-06
0.021375,-4.135164545e-06
0.02139583333,-4.483387329e-06
0.02141666667,-4.795195309e-06
0.0214375,-5.044564205e-06
0.02145833333,-5.225374025e-06
0.02147916667,-5.606875675e-06
0.0215,-5.875329862e-06
0.02152083333,-6.291417321e-06
0.02154166667,-6.58275485e-06
0.0215625,-7.027295851e-06
0.02158333333,-7.444908078e-06
0.02160416667,-8.010668353e-06
0.021625,-8.473074558e-06
0.02164583333,-8.864107258e-06
0.02166666667,-9.243354725e-06
0.0216875,-9.421531104e-06
0.02170833333,-9.604900697e-06
0.02172916667,-9.776629668e-06
0.02175,-9.970014617e-06
0.02177083333,-1.02455524e-05
0.02179166667,-1.018273178e-05
0.0218125,-1.01047699e-05
0.02183333333,-9.865056199e-06
0.02185416667,-9.642524674e-06
0.021875,-9.511380995e-06
0.02189583333,-9.50456797e-06
0.02191666667,-9.558721104e-06
0.0219375,-9.918118849e-06
0.02195833333,-9.9714116e-06
0.02197916667,-1.006573166e-05
0.022,-1.014847385e-05
0.02202083333,-9.988788406e-06
0.02204166667,-9.786485862e-06
0.0220625,-9.659011084e-06
0.02208333333,-9.327829503e-06
0.02210416667,-9.238782695e-06
0.022125,-9.040053556e-06
0.02214583333,-8.656316822e-06
0.02216666667,-8.400421393e-06
0.0221875,-7.902907782e-06
0.02220833333,-7.314091363e-06
0.02222916667,-6.55058966e-06
0.02225,-5.662896001e-06
0.02227083333,-5.32044578e-06
0.02229166667,-5.454788607e-06
0.0223125,-6.013051461e-06
0.02233333333,-6.463605132e-06
0.02235416667,-6.543546988e-06
0.022375,-5.853724815e-06
0.02239583333,-4.548407105e-06
0.02241666667,-3.234275255e-06
0.0224375,-2.506319333e-06
0.02245833333,-2.545771395e-06
0.02247916667,-3.187856919e-06
0.0225,-3.744370588e-06
0.02252083333,-3.746496986e-06
0.02254166667,-3.105356427e-06
0.0225625,-2.091297574e-06
0.02258333333,-9.61106025e-07
0.02260416667,-1.880368927e-07
0.022625,3.382610885e-07
0.02264583333,6.296397714e-07
0.02266666667,1.085491704e-06
0.0226875,1.426009248e-06
0.02270833333,1.640494247e-06
0.02272916667,1.72687669e-06
0.02275,1.992829993e-06
0.02277083333,2.38366124e-06
0.02279166667,2.939531896e-06
0.0228125,3.133410928e-06
0.02283333333,3.300761591e-06
0.02285416667,2.812996399e-06
0.022875,2.311375056e-06
0.02289583333,2.223530828e-06
0.02291666667,2.777747795e-06
0.0229375,3.571239631e-06
0.02295833333,4.532265393e-06
0.02297916667,4.782694305e-06
0.023,4.61136915e-06
0.02302083333,4.065672329e-06
0.02304166667,3.87117052e-06
0.0230625,4.147503205e-06
0.02308333333,4.971557701e-06
0.02310416667,5.339514246e-06
0.023125,5.431404134e-06
0.02314583333,4.844743671e-06
0.02316666667,4.139629709e-06
0.0231875,3.219190148e-06
0.02320833333,3.230067705e-06
0.02322916667,3.175624897e-06
0.02325,3.480933856e-06
0.02327083333,3.497986654e-06
0.02329166667,3.534427378e-06
0.0233125,3.404607924e-06
0.02333333333,3.517032837e-06
0.02335416667,3.805956339e-06
0.023375,4.265027201e-06
0.02339583333,4.5681968e-06
0.02341666667,4.8157126e-06
0.0234375,4.74616445e-06
0.02345833333,4.783182703e-06
0.02347916667,4.450199867e-06
0.0235,4.035865004e-06
0.02352083333,3.011534091e-06
0.02354166667,1.739985009e-06
0.0235625,3.826663715e-07
0.02358333333,-5.523230584e-07
0.02360416667,-9.270406736e-07
0.023625,-5.454805887e-07
0.02364583333,-8.174583854e-08
0.02366666667,8.583538147e-08
0.0236875,-3.751675877e-07
0.02370833333,-1.996721267e-06
0.02372916667,-3.838020803e-06
0.02375,-5.382059499e-06
0.02377083333,-6.221450349e-06
0.02379166667,-6.410764399e-06
0.0238125,-6.269443475e-06
0.02383333333,-6.993588613e-06
0.02385416667,-8.069483556e-06
0.023875,-9.195653547e-06
0.02389583333,-1.016862734e-05
0.02391666667,-1.008427262e-05
0.0239375,-9.627499821e-06
0.02395833333,-8.948888535e-06
0.02397916667,-8.729726687e-06
0.024,-9.049738765e-06
0.02402083333,-9.945593774e-06
0.02404166667,-1.0617714e-05
0.0240625,-1.136702122e-05
0.02408333333,-1.178152525e-05
0.02410416667,-1.205796434e-05
0.024125,-1.239304402e-05
0.02414583333,-1.300664917e-05
0.02416666667,-1.373152008e-05
0.0241875,-1.490358773e-05
0.02420833333,-1.609405081e-05
0.02422916667,-1.758433609e-05
0.02425,-1.870410051e-05
0.02427083333,-1.962937677e-05
0.02429166667,-1.980135858e-05
0.0243125,-2.004604903e-05
0.02433333333,-1.99914175e-05
0.02435416667,-2.024588684e-05
0.024375,-2.037494414e-05
0.02439583333,-2.057810343e-05
0.02441666667,-2.027991104e-05
0.0244375,-2.02431911e-05
0.02445833333,-2.008158481e-05
0.02447916667,-2.042747292e-05
0.0245,-2.06524237e-05
0.02452083333,-2.114667586e-05
0.02454166667,-2.050666444e-05
0.0245625,-2.018011946e-05
0.02458333333,-1.937666821e-05
0.02460416667,-1.866781531e-05
0.024625,-1.757614336e-05
0.02464583333,-1.674864507e-05
0.02466666667,-1.56030801e-05
0.0246875,-1.50531796e-05
0.02470833333,-1.501549013e-05
0.02472916667,-1.594000423e-05
0.02475,-1.711234654e-05
0.02477083333,-1.827821325e-05
0.02479166667,-1.910811807e-05
0.0248125,-2.011658398e-05
0.02483333333,-2.125948231e-05
0.02485416667,-2.307157047e-05
0.024875,-2.480837793e-05
0.02489583333,-2.587747622e-05
0.02491666667,-2.52143127e-05
0.0249375,-2.364328793e-05
0.02495833333,-2.113803384e-05
0.02497916667,-1.887498365e-05
0.025,-1.702615555e-05
0.02502083333,-1.559485827e-05
0.02504166667,-1.429829354e-05
0.0250625,-1.302439523e-05
0.02508333333,-1.131056524e-05
0.02510416667,-9.970903193e-06
0.025125,-8.821659321e-06
0.02514583333,-7.649256986e-06
0.02516666667,-6.664819921e-06
0.0251875,-6.1860801e-06
0.02520833333,-5.706300271e-06
0.02522916667,-6.186648534e-06
0.02525,-5.836321634e-06
0.02527083333,-5.132746082e-06
0.02529166667,-3.740970897e-06
0.0253125,-2.8534796e-06
0.02533333333,-2.458285508e-06
0.02535416667,-3.419164386e-06
0.025375,-5.020242952e-06
0.02539583333,-6.508972092e-06
0.02541666667,-6.707072316e-06
0.0254375,-6.258484063e-06
0.02545833333,-5.008534572e-06
0.02547916667,-4.733803507e-06
0.0255,-5.010182122e-06
0.02552083333,-6.254572327e-06
0.02554166667,-6.545728866e-06
0.0255625,-6.894332728e-06
0.02558333333,-5.979776688e-06
0.02560416667,-5.466693892e-06
0.025625,-5.52173924e-06
0.02564583333,-5.83570727e-06
0.02566666667,-5.968077858e-06
0.0256875,-5.969914582e-06
0.02570833333,-5.705442618e-06
0.02572916667,-6.557489542e-06
0.02575,-7.355931302e-06
0.02577083333,-8.536477253e-06
0.02579166667,-8.558774425e-06
0.0258125,-7.749904398e-06
0.02583333333,-5.598708867e-06
0.02585416667,-3.748492418e-06
0.025875,-2.078305442e-06
0.02589583333,-1.564344984e-06
0.02591666667,-1.77142465e-06
0.0259375,-2.915169944e-06
0.02595833333,-2.982119213e-06
0.02597916667,-3.938356713e-06
0.026,-5.1546549e-06
0.02602083333,-6.858971574e-06
0.02604166667,-8.634544429e-06
0.0260625,-1.149725813e-05
0.02608333333,-1.352733489e-05
0.02610416667,-1.568463085e-05
0.026125,-1.6544549e-05
0.02614583333,-1.754791083e-05
0.02616666667,-1.838041862e-05
0.0261875,-2.023829984e-05
0.02620833333,-2.266838055e-05
0.02622916667,-2.598131687e-05
0.02625,-2.796827175e-05
0.02627083333,-2.932724237e-05
0.02629166667,-2.850074816e-05
0.0263125,-2.795249384e-05
0.02633333333,-2.697308992e-05
0.02635416667,-2.775586472e-05
0.026375,-2.809469152e-05
0.02639583333,-2.827741628e-05
0.02641666667,-2.679748286e-05
0.0264375,-2.558097549e-05
0.02645833333,-2.388823486e-05
0.02647916667,-2.436012437e-05
0.0265,-2.554221282e-05
0.02652083333,-2.768115519e-05
0.02654166667,-2.898866296e-05
0.0265625,-3.024430043e-05
0.02658333333,-3.13594719e-05
0.02660416667,-3.36408666e-05
0.026625,-3.621250289e-05
0.02664583333,-3.881823432e-05
0.02666666667,-3.967456723e-05
0.0266875,-3.997945169e-05
0.02670833333,-4.005967276e-05
0.02672916667,-4.190854088e-05
0.02675,-4.463714868e-05
0.02677083333,-4.716214607e-05
0.02679166667,-4.695841926e-05
0.0268125,-4.455140152e-05
0.02683333333,-4.069979695e-05
0.02685416667,-3.811564602e-05
0.026875,-3.762450433e-05
0.02689583333,-3.87980399e-05
0.02691666667,-3.980229667e-05
0.0269375,-3.97517797e-05
0.02695833333,-3.737163934e-05
0.02697916667,-3.607578037e-05
0.027,-3.62050414e-05
0.02702083333,-3.774977813e-05
0.02704166667,-3.790192568e-05
0.0270625,-3.72940849e-05
0.02708333333,-3.374354128e-05
0.02710416667,-3.039267722e-05
0.027125,-2.752020009e-05
0.02714583333,-2.702783422e-05
0.02716666667,-2.752715773e-05
0.0271875,-2.843809852e-05
0.02720833333,-2.874766324e-05
0.02722916667,-2.940936793e-05
0.02725,-2.932175266e-05
0.02727083333,-3.089289385e-05
0.02729166667,-3.236928023e-05
0.0273125,-3.614012167e-05
0.02733333333,-4.009261465e-05
0.02735416667,-4.510725557e-05
0.027375,-4.846992306e-05
0.02739583333,-5.082785356e-05
0.02741666667,-4.956579141e-05
0.0274375,-4.743580212e-05
0.02745833333,-4.393382187e-05
0.02747916667,-4.229776823e-05
0.0275,-4.005250594e-05
0.02752083333,-3.932607069e-05
0.02754166667,-3.623682278e-05
0.0275625,-3.360084884e-05
0.02758333333,-2.979626333e-05
0.02760416667,-2.824045259e-05
0.027625,-2.635239798e-05
0.02764583333,-2.350852264e-05
0.02766666667,-1.797802179e-05
0.0276875,-1.261086618e-05
0.02770833333,-8.602766684e-06
0.02772916667,-9.07861795e-06
0.02775,-1.242306462e-05
0.02777083333,-1.759910265e-05
0.02779166667,-2.017230508e-05
0.0278125,-2.075808698e-05
0.02783333333,-1.978465298e-05
0.02785416667,-2.25776439e-05
0.027875,-2.998239142e-05
0.02789583333,-4.052805161e-05
0.02791666667,-4.884957889e-05
0.0279375,-5.153168968e-05
0.02795833333,-4.811976032e-05
0.02797916667,-4.396332588e-05
0.028,-4.189482206e-05
0.02802083333,-4.161729157e-05
0.02804166667,-4.251715654e-05
0.0280625,-4.065449684e-05
0.02808333333,-3.498726073e-05
0.02810416667,-2.840502202e-05
0.028125,-2.260261135e-05
0.02814583333,-2.104928717e-05
0.02816666667,-2.246207987e-05
0.0281875,-2.584863068e-05
0.02820833333,-3.142767673e-05
0.02822916667,-3.951260442e-05
0.02825,-5.007534492e-05
0.02827083333,-6.030886652e-05
0.02829166667,-6.569785182e-05
0.0283125,-6.308961019e-05
0.02833333333,-5.20682006e-05
0.02835416667,-3.801901039e-05
0.028375,-2.4048657e-05
0.02839583333,-1.702869849e-05
0.02841666667,-1.562093166e-05
0.0284375,-1.975816303e-05
0.02845833333,-2.342166772e-05
0.02847916667,-2.524760203e-05
0.0285,-2.339217099e-05
0.02852083333,-2.27327946e-05
0.02854166667,-2.598407445e-05
0.0285625,-3.398036279e-05
0.02858333333,-4.457025716e-05
0.02860416667,-5.625211634e-05
0.028625,-6.218937051e-05
0.02864583333,-6.274691987e-05
0.02866666667,-5.868706285e-05
0.0286875,-5.685737415e-05
0.02870833333,-6.121267506e-05
0.02872916667,-7.465899398e-05
0.02875,-9.0822934e-05
0.02877083333,-0.000100499492
0.02879166667,-0.0001012194916
0.0288125,-9.316189971e-05
0.02883333333,-8.313442959e-05
0.02885416667,-7.959883806e-05
0.028875,-8.225401689e-05
0.02889583333,-8.863151015e-05
0.02891666667,-9.037424752e-05
0.0289375,-8.535855159e-05
0.02895833333,-7.418695168e-05
0.02897916667,-7.089650899e-05
0.029,-7.641347474e-05
0.02902083333,-8.549056656e-05
0.02904166667,-9.537240112e-05
0.0290625,-9.670150757e-05
0.02908333333,-9.595145093e-05
0.02910416667,-9.767800657e-05
0.029125,-0.0001111956008
0.02914583333,-0.0001314211986
0.02916666667,-0.0001521929516
0.0291875,-0.0001683423907
0.02920833333,-0.0001765590132
0.02922916667,-0.0001840549376
0.02925,-0.0001927909616
0.02927083333,-0.0002009127784
0.02929166667,-0.0002022986591
0.0293125,-0.0001907081169
0.02933333333,-0.0001694650709
0.02935416667,-0.000148705265
0.029375,-0.0001445130765
0.02939583333,-0.0001526829728
0.02941666667,-0.0001630049665
0.0294375,-0.0001665972377
0.02945833333,-0.0001623677817
0.02947916667,-0.0001636505622
0.0295,-0.0001752179523
0.02952083333,-0.0001966704585
0.02954166667,-0.000218563946
0.0295625,-0.0002118353295
0.02958333333,-0.0001670925703
0.02960416667,-0.000100148507
0.029625,-4.195752626e-05
0.02964583333,-2.4113564e-05
0.02966666667,-4.345188063e-05
0.0296875,-9.132464766e-05
0.02970833333,-0.0001306780177
0.02972916667,-0.0001598975505
0.02975,-0.0001690727368
0.02977083333,-0.000180683026
0.02979166667,-0.0001921684307
0.0298125,-0.0001989528973
0.02983333333,-0.0001947295241
0.02985416667,-0.0001948348363
0.029875,-0.0002274610742
0.02989583333,-0.0002927372116
0.02991666667,-0.0003788842878
0.0299375,-0.0004494407913
0.02995833333,-0.0004212083586
0.02997916667,-0.0003391195787
0.03,9.068984946e-05
0.03002083333,0.0001910823921
0.03004166667,0.0002497630194
0.0300625,0.000197652058
0.03008333333,0.0001282492885
0.03010416667,6.28537091e-05
0.030125,3.256568743e-05
0.03014583333,2.905067049e-05
0.03016666667,4.379684833e-05
0.0301875,3.945638309e-05
0.03020833333,3.994324288e-05
0.03022916667,2.896781371e-05
0.03025,2.604121983e-05
0.03027083333,-1.208610502e-05
0.03029166667,-5.155380131e-05
0.0303125,-0.0001152999539
0.03033333333,-0.0001299991854
0.03035416667,-0.0001122017129
0.030375,-5.021868492e-05
0.03039583333,3.617621405e-05
0.03041666667,9.210182179e-05
0.0304375,0.0001014989029
0.03045833333,8.193009853e-05
0.03047916667,4.630485273e-05
0.0305,2.790901453e-05
0.03052083333,2.41494854e-05
0.03054166667,3.267181091e-05
0.0305625,3.626254329e-05
0.03058333333,2.684126594e-05
0.03060416667,1.69787636e-05
0.030625,1.518276531e-05
0.03064583333,3.613863737e-05
0.03066666667,5.716254964e-05
0.0306875,8.418936341e-05
0.03070833333,9.217682964e-05
0.03072916667,0.0001058637135
0.03075,0.0001129597513
0.03077083333,0.0001216524106
0.03079166667,0.0001209459588
0.0308125,0.0001153987614
0.03083333333,8.995330427e-05
0.03085416667,7.928356354e-05
0.030875,5.23515555e-05
0.03089583333,5.879549644e-05
0.03091666667,5.278776734e-05
0.0309375,5.476107981e-05
0.03095833333,3.496764839e-05
0.03097916667,2.224760465e-05
0.031,2.52599034e-06
0.03102083333,1.409693596e-06
0.03104166667,2.417049473e-06
0.0310625,5.912074812e-06
0.03108333333,-6.378592843e-06
0.03110416667,-1.091059767e-05
0.031125,-2.062745625e-05
0.03114583333,-1.338947641e-05
0.03116666667,-4.363049356e-06
0.0311875,9.159402907e-06
0.03120833333,1.441028962e-05
0.03122916667,1.019407409e-05
0.03125,-4.137046744e-06
0.03127083333,-1.772738324e-05
0.03129166667,-1.587079896e-05
0.0313125,-1.640496157e-05
0.03133333333,3.312269655e-06
0.03135416667,5.414764018e-06
0.031375,1.170516498e-05
0.03139583333,8.993378287e-06
0.03141666667,2.516959967e-06
0.0314375,-8.315541891e-07
0.03145833333,-4.267015356e-06
0.03147916667,-7.403722066e-06
0.0315,-3.636153906e-06
0.03152083333,-1.652579886e-05
0.03154166667,-1.84764358e-05
0.0315625,-4.101637751e-05
0.03158333333,-4.898296902e-05
0.03160416667,-4.526766861e-05
0.031625,-2.305444286e-05
0.03164583333,1.541633537e-06
0.03166666667,2.276433952e-05
0.0316875,2.967361434e-05
0.03170833333,2.414251503e-05
0.03172916667,7.758995707e-06
0.03175,-3.517808182e-06
0.03177083333,-1.607928607e-05
0.03179166667,-1.016865826e-05
0.0318125,-5.937634342e-06
0.03183333333,1.402607268e-05
0.03185416667,3.034627662e-05
0.031875,5.152833546e-05
0.03189583333,7.019437908e-05
0.03191666667,8.316231106e-05
0.0319375,8.51440418e-05
0.03195833333,8.386463742e-05
0.03197916667,8.888183947e-05
0.032,0.0001053034503
0.03202083333,0.0001331668027
0.03204166667,0.0001485904504
0.0320625,0.0001503705425
0.03208333333,0.000136284958
0.03210416667,0.000104381812
0.032125,7.409464888e-05
0.03214583333,5.478093954e-05
0.03216666667,3.927434591e-05
0.0321875,4.307525887e-05
0.03220833333,3.911434032e-05
0.03222916667,4.661271305e-05
0.03225,4.477233961e-05
0.03227083333,5.546565808e-05
0.03229166667,6.052001117e-05
0.0323125,7.353148976e-05
0.03233333333,7.387217192e-05
0.03235416667,8.124095621e-05
0.032375,8.885701391e-05
0.03239583333,0.0001044650417
0.03241666667,0.0001224073785
0.0324375,0.0001388777164
0.03245833333,0.0001489856368
0.03247916667,0.0001554480405
0.0325,0.0001614155044
0.03252083333,0.000164701356
0.03254166667,0.000167441438
0.0325625,0.0001653168001
0.03258333333,0.0001569322194
0.03260416667,0.0001520242949
0.032625,0.0001438886975
0.03264583333,0.0001481107756
0.03266666667,0.0001486423716
0.0326875,0.0001443031215
0.03270833333,0.0001431155542
0.03272916667,0.0001277999691
0.03275,0.0001227276371
0.03277083333,9.676724585e-05
0.03279166667,8.780576172e-05
0.0328125,6.595922605e-05
0.03283333333,5.091930507e-05
0.03285416667,3.782519707e-05
0.032875,3.39159742e-05
0.03289583333,3.4518147e-05
0.03291666667,4.23773381e-05
0.0329375,3.647733683e-05
0.03295833333,5.012288602e-05
0.03297916667,3.829444904e-05
0.033,4.625560541e-05
0.03302083333,5.13674313e-05
0.03304166667,7.663097495e-05
0.0330625,9.549918468e-05
0.03308333333,0.0001171811309
0.03310416667,0.0001312144741
0.033125,0.0001453247096
0.03314583333,0.0001582119294
0.03316666667,0.0001704794122
0.0331875,0.0001741177839
0.03320833333,0.0001622108975
0.03322916667,0.000145319078
0.03325,0.0001263535087
0.03327083333,0.0001111748497
0.03329166667,0.0001127186988
0.0333125,0.0001105328047
0.03333333333,0.0001197604724
0.03335416667,0.0001181426778
0.033375,0.0001211762137
0.03339583333,0.00011376982
0.03341666667,0.0001069299979
0.0334375,0.0001073507956
0.03345833333,0.0001070474464
0.03347916667,0.0001187276357
0.0335,0.0001223228173
0.03352083333,0.0001370412065
0.03354166667,0.0001475802565
0.0335625,0.0001563459518
0.03358333333,0.0001664292504
0.03360416667,0.0001749635267
0.033625,0.0001703961461
0.03364583333,0.0001784818305
0.03366666667,0.0001895187888
0.0336875,0.0002155071707
0.03370833333,0.0002367489506
0.03372916667,0.0002699546458
0.03375,0.0002714593429
0.03377083333,0.0002763537923
0.03379166667,0.0002664625645
0.0338125,0.0002632942051
0.03383333333,0.000263708469
0.03385416667,0.0002767635742
0.033875,0.0002838787041
0.03389583333,0.0002912368218
0.03391666667,0.0002783329983
0.0339375,0.0002602727327
0.03395833333,0.0002392622991
0.03397916667,0.00022847316
0.034,0.0002226245124
0.03402083333,0.0002192453539
0.03404166667,0.0002230525424
0.0340625,0.0002230230166
0.03408333333,0.0002176481939
0.03410416667,0.0002288550895
0.034125,0.0002453959314
0.03414583333,0.0002665912616
0.03416666667,0.0002938729885
0.0341875,0.000316923135
0.03420833333,0.0003345363657
0.03422916667,0.0003505954519
0.03425,0.000373238232
0.03427083333,0.0004004174843
0.03429166667,0.0004345054622
0.0343125,0.0004514914472
0.03433333333,0.0004569688463
0.03435416667,0.0004331147939
0.034375,0.0004103519022
0.03439583333,0.000380318641
0.03441666667,0.0003670290462
0.0344375,0.0003422904992
0.03445833333,0.0003328348976
0.03447916667,0.0003128073586
0.0345,0.0003033259709
0.03452083333,0.0002837325155
0.03454166667,0.0002817572095
0.0345625,0.0002842039976
0.03458333333,0.0002859149536
0.03460416667,0.0002858212101
0.034625,0.0002910128678
0.03464583333,0.000300616317
0.03466666667,0.000333440461
0.0346875,0.0003648028942
0.03470833333,0.0003985801013
0.03472916667,0.0004093304742
0.03475,0.0004048176343
0.03477083333,0.0003803704167
0.03479166667,0.0003569249238
0.0348125,0.0003449692158
0.03483333333,0.0003310282773
0.03485416667,0.0003365238081
0.034875,0.0003199804632
0.03489583333,0.0003212089359
0.03491666667,0.0003160344204
0.0349375,0.0003188007395
0.03495833333,0.0003204517416
0.03497916667,0.0003369656042
0.035,0.0003545232175
0.03502083333,0.0003791328054
0.03504166667,0.000397797412
0.0350625,0.0004216653178
0.03508333333,0.0004288686905
0.03510416667,0.0004341722815
0.035125,0.0004193577915
0.03514583333,0.0004204839934
0.03516666667,0.0004164585262
0.0351875,0.0004158820957
0.03520833333,0.0004080666695
0.03522916667,0.0003989640973
0.03525,0.0003828768968
0.03527083333,0.0003847737971
0.03529166667,0.0003781622218
0.0353125,0.0003988316457
0.03533333333,0.0003990223049
0.03535416667,0.0004198609968
0.035375,0.0004255485255
0.03539583333,0.0004293482634
0.03541666667,0.0004390386457
0.0354375,0.0004267512413
0.03545833333,0.0004352306714
0.03547916667,0.0004245040764
0.0355,0.0004170226748
0.03552083333,0.000411274028
0.03554166667,0.000423969992
0.0355625,0.000417868403
0.03558333333,0.0004341938184
0.03560416667,0.000442575576
0.035625,0.0004774435074
0.03564583333,0.0005076106172
0.03566666667,0.0005399339134
0.0356875,0.0005739794578
0.03570833333,0.000624150387
0.03572916667,0.0006357926177
0.03575,0.0006755900104
0.03577083333,0.0006642863736
0.03579166667,0.0006827390753
0.0358125,0.0006784939906
0.03583333333,0.000689403154
0.03585416667,0.0006619542837
0.035875,0.0006387914182
0.03589583333,0.0005967927282
0.03591666667,0.0005823213141
0.0359375,0.0005482072593
0.03595833333,0.0005297180032
0.03597916667,0.00050666678
0.036,0.0004852231941
0.03602083333,0.0004773228429
0.03604166667,0.0004905210226
0.0360625,0.0005023517297
0.03608333333,0.0005305360537
0.03610416667,0.0005603232421
0.036125,0.0005944299046
0.03614583333,0.0006308430457
0.03616666667,0.0006613379228
0.0361875,0.0007111136802
0.03620833333,0.000743563287
0.03622916667,0.0007743206806
0.03625,0.0007665316225
0.03627083333,0.0007612708723
0.03629166667,0.0007349136285
0.0363125,0.0007444156799
0.03633333333,0.000720840646
0.03635416667,0.0007051732973
0.036375,0.0006702949759
0.03639583333,0.0006474385737
0.03641666667,0.0005990442587
0.0364375,0.0005746468087
0.03645833333,0.0005372482701
0.03647916667,0.0005497896345
0.0365,0.0005359171773
0.03652083333,0.000542017282
0.03654166667,0.0005452748155
0.0365625,0.0005803719396
0.03658333333,0.0006029385841
0.03660416667,0.0006572430721
0.036625,0.0006872130325
0.03664583333,0.0007403052296
0.03666666667,0.0007768331561
0.0366875,0.0007918109768
0.03670833333,0.0008047251613
0.03672916667,0.0008139322745
0.03675,0.0008237744914
0.03677083333,0.000841099536
0.03679166667,0.0008496177616
0.0368125,0.0008539570263
0.03683333333,0.0008518444374
0.03685416667,0.0008467250736
0.036875,0.0008264685166
0.03689583333,0.000811866601
0.03691666667,0.0008072133642
0.0369375,0.0007805122877
0.03695833333,0.0007833707496
0.03697916667,0.0007691141218
0.037,0.0007780349115
0.03702083333,0.0007794436533
0.03704166667,0.0008084449219
0.0370625,0.0008225654019
0.03708333333,0.0008439931553
0.03710416667,0.000829270517
0.037125,0.000841875677
0.03714583333,0.0008502199198
0.03716666667,0.0008839436341
0.0371875,0.0009174259612
0.03720833333,0.0009639163036
0.03722916667,0.000976995565
0.03725,0.001010318054
0.03727083333,0.001002737437
0.03729166667,0.001024005818
0.0373125,0.001021022792
0.03733333333,0.001040804316
0.03735416667,0.001035285648
0.037375,0.001023153425
0.03739583333,0.001003860962
0.03741666667,0.001000163378
0.0374375,0.001004881808
0.03745833333,0.001016966882
0.03747916667,0.001018739538
0.0375,0.001012341352
0.03752083333,0.0009709555889
0.03754166667,0.0009763821727
0.0375625,0.0009701816598
0.03758333333,0.0009936068673
0.03760416667,0.001027541701
0.037625,0.001048205653
0.03764583333,0.001068690326
0.03766666667,0.001057998044
0.0376875,0.001050909981
0.03770833333,0.001027970691
0.03772916667,0.001039953786
0.03775,0.00103798043
0.03777083333,0.001037511043
0.03779166667,0.00102266157
0.0378125,0.001006072154
0.03783333333,0.0009699837537
0.03785416667,0.0009710480226
0.037875,0.0009492888348
0.03789583333,0.0009541879408
0.03791666667,0.0009376669186
0.0379375,0.0009696002817
0.03795833333,0.0009657784831
0.03797916667,0.0009930194356
0.038,0.0009727296419
0.03802083333,0.0009929526132
0.03804166667,0.0009849672206
0.0380625,0.001000610297
0.03808333333,0.0009768946329
0.03810416667,0.0009851489449
0.038125,0.0009771798505
0.03814583333,0.0009710606537
0.03816666667,0.0009572383715
0.0381875,0.0009508472285
0.03820833333,0.0009117478039
0.03822916667,0.0008798344643
0.03825,0.0008298669127
0.03827083333,0.0008070816984
0.03829166667,0.0007886777166
0.0383125,0.0007946550613
0.03833333333,0.0008197561256
0.03835416667,0.0008215736016
0.038375,0.0008333407459
0.03839583333,0.0008258777088
0.03841666667,0.0008443825645
0.0384375,0.0008594079409
0.03845833333,0.0008709863178
0.03847916667,0.0008847573772
0.0385,0.0009123781929
0.03852083333,0.0009246233385
0.03854166667,0.0009637818439
0.0385625,0.0009768701857
0.03858333333,0.001006367616
0.03860416667,0.0009987150552
0.038625,0.0009888671339
0.03864583333,0.0009769328171
0.03866666667,0.0009827358881
0.0386875,0.0009752229089
0.03870833333,0.00101469364
0.03872916667,0.001039427239
0.03875,0.001066845376
0.03877083333,0.001058717957
0.03879166667,0.001073471969
0.0388125,0.001055921894
0.03883333333,0.00107645872
0.03885416667,0.001043741358
0.038875,0.001048638369
0.03889583333,0.001002923353
0.03891666667,0.0009986583609
0.0389375,0.0009936700808
0.03895833333,0.001031311927
0.03897916667,0.001059257775
0.039,0.001096402295
0.03902083333,0.001112211612
0.03904166667,0.001118846121
0.0390625,0.001121108653
0.03908333333,0.001126852352
0.03910416667,0.001130351564
0.039125,0.001162288594
0.03914583333,0.001193932956
0.03916666667,0.001217172714
0.0391875,0.001204984146
0.03920833333,0.001205154113
0.03922916667,0.0012016861
0.03925,0.001175659709
0.03927083333,0.001166498521
0.03929166667,0.001100402558
0.0393125,0.001068565063
0.03933333333,0.001040937146
0.03935416667,0.001067659003
0.039375,0.001035652589
0.03939583333,0.001040771254
0.03941666667,0.001018473064
0.0394375,0.001001578639
0.03945833333,0.0009545073844
0.03947916667,0.0009377817041
0.0395,0.0009012843366
0.03952083333,0.0009387639002
0.03954166667,0.0009351430926
0.0395625,0.0009379527182
0.03958333333,0.0009367983439
0.03960416667,0.0009338879609
0.039625,0.0008849797305
0.03964583333,0.0008729749243
0.03966666667,0.0008168634376
0.0396875,0.000801133865
0.03970833333,0.0007546438137
0.03972916667,0.0007394031854
0.03975,0.0007190387696
0.03977083333,0.0006959793391
0.03979166667,0.0006564193172
0.0398125,0.0006519555463
0.03983333333,0.0006002285518
0.03985416667,0.0005930236075
0.039875,0.0005794446333
0.03989583333,0.0005808913847
0.03991666667,0.0005796360783
0.0399375,0.0005685180658
0.03995833333,0.0005595998955
0.03997916667,0.000528877601
0.04,0.0005575927789
0.04002083333,0.0005256407312
0.04004166667,0.0005450737663
0.0400625,0.000537800719
0.04008333333,0.0005668185186
0.04010416667,0.0005641639
0.040125,0.0005992552033
0.04014583333,0.0005729817203
0.04016666667,0.0006188984262
0.0401875,0.0005946012097
0.04020833333,0.0006131656119
0.04022916667,0.0005443896516
0.04025,0.0005676646833
0.04027083333,0.0005204610061
0.04029166667,0.0005343990633
0.0403125,0.0005316838506
0.04033333333,0.0005237158039
0.04035416667,0.0004778984003
0.040375,0.0004488287377
0.04039583333,0.0004135057388
0.04041666667,0.0003757274244
0.0404375,0.0003416346444
0.04045833333,0.0003152066201
0.04047916667,0.0003104245116
0.0405,0.000315933954
0.04052083333,0.0003730453609
0.04054166667,0.0004116363707
0.0405625,0.0004385778157
0.04058333333,0.0003974388528
0.04060416667,0.0004386271175
0.040625,0.0004229067708
0.04064583333,0.0005365828401
0.04066666667,0.0005698387395
0.0406875,0.0006365007139
0.04070833333,0.0006384139997
0.04072916667,0.0006841210998
0.04075,0.0006698314101
0.04077083333,0.0006886101328
0.04079166667,0.000655873213
0.0408125,0.0006561484188
0.04083333333,0.0006193106528
0.04085416667,0.0006312945043
0.040875,0.0005979444832
0.04089583333,0.0006428008201
0.04091666667,0.0006147815729
0.0409375,0.0006103984779
0.04095833333,0.0005572816008
0.04097916667,0.0005454655038
0.041,0.0004796529247
0.04102083333,0.000434763846
0.04104166667,0.0003936475259
0.0410625,0.0003955716675
0.04108333333,0.0003664700489
0.04110416667,0.0003745569556
0.041125,0.0003612519067
0.04114583333,0.0003708566073
0.04116666667,0.0003764329886
0.0411875,0.0003957412264
0.04120833333,0.000427579449
0.04122916667,0.0004430328845
0.04125,0.0004592672922
0.04127083333,0.0004387852678
0.04129166667,0.0004303073511
0.0413125,0.000345301145
0.04133333333,0.0002908306196
0.04135416667,0.0002251033438
0.041375,0.0001805142674
0.04139583333,0.0001102128663
0.04141666667,6.062981993e-05
0.0414375,-3.83681072e-06
0.04145833333,-4.09507411e-05
0.04147916667,-7.064574311e-05
0.0415,-7.940088835e-05
0.04152083333,-0.0001579726086
0.04154166667,-0.0001346531208
0.0415625,-0.0002156667761
0.04158333333,-0.0002183266042
0.04160416667,-0.0002620852611
0.041625,-0.0002740763885
0.04164583333,-0.000311196578
0.04166666667,-0.000327689253
0.0416875,-0.0003581705678
0.04170833333,-0.0003899849835
0.04172916667,-0.0004207480815
0.04175,-0.0004277027328
0.04177083333,-0.0004629252362
0.04179166667,-0.0004944268148
0.0418125,-0.0005484627327
0.04183333333,-0.0006233912427
0.04185416667,-0.000669800851
0.041875,-0.0007090370636
0.04189583333,-0.0007512110169
0.04191666667,-0.0007882406353
0.0419375,-0.0008292482235
0.04195833333,-0.0009098589653
0.04197916667,-0.0009947596118
0.042,-0.001090389327
0.04202083333,-0.001143939211
0.04204166667,-0.0011925156
0.0420625,-0.001230045455
0.04208333333,-0.001254645176
0.04210416667,-0.001250237809
0.042125,-0.001268084394
0.04214583333,-0.001268209424
0.04216666667,-0.001271800604
0.0421875,-0.001238619676
0.04220833333,-0.001265135594
0.04222916667,-0.001279028482
0.04225,-0.001293929876
0.04227083333,-0.001231411006
0.04229166667,-0.001205196255
0.0423125,-0.00115082867
0.04233333333,-0.001144114882
0.04235416667,-0.001138967811
0.042375,-0.001159161562
0.04239583333,-0.001137990737
0.04241666667,-0.001123389578
0.0424375,-0.001085932949
0.04245833333,-0.001088455087
0.04247916667,-0.00106326153
0.0425,-0.001103277551
0.04252083333,-0.001081157709
0.04254166667,-0.001050834428
0.0425625,-0.0009817344835
0.04258333333,-0.0009621150675
0.04260416667,-0.0009900176665
0.042625,-0.001052493695
0.04264583333,-0.001118267188
0.04266666667,-0.001152773038
0.0426875,-0.001201888546
0.04270833333,-0.001222994644
0.04272916667,-0.001250217669
0.04275,-0.001290509012
0.04277083333,-0.001308138832
0.04279166667,-0.001297507086
0.0428125,-0.001322437776
0.04283333333,-0.001301864162
0.04285416667,-0.001316565438
0.042875,-0.001338095404
0.04289583333,-0.001376513625
0.04291666667,-0.001402262715
0.0429375,-0.001408910379
0.04295833333,-0.001388863544
0.04297916667,-0.001400071196
0.043,-0.001407464151
0.04302083333,-0.001467501046
0.04304166667,-0.00150075485
0.0430625,-0.001515188138
0.04308333333,-0.00150198082
0.04310416667,-0.00149183732
0.043125,-0.00149720558
0.04314583333,-0.00153061212
0.04316666667,-0.001581222634
0.0431875,-0.001664682059
0.04320833333,-0.001684968011
0.04322916667,-0.001702570473
0.04325,-0.001674646162
0.04327083333,-0.001648557838
0.04329166667,-0.00162827794
0.0433125,-0.0016170647
0.04333333333,-0.001614448498
0.04335416667,-0.001608272549
0.043375,-0.001610337058
0.04339583333,-0.001614431851
0.04341666667,-0.001620148076
0.0434375,-0.001644167816
0.04345833333,-0.001636843081
0.04347916667,-0.001598312403
0.0435,-0.001593793277
0.04352083333,-0.001596703427
0.04354166667,-0.001655954169
0.0435625,-0.001726262621
0.04358333333,-0.001801522914
0.04360416667,-0.001818998018
0.043625,-0.001865934348
0.04364583333,-0.001867027255
0.04366666667,-0.001879605232
0.0436875,-0.001849124092
0.04370833333,-0.001873134403
0.04372916667,-0.001876811613
0.04375,-0.0018730507
0.04377083333,-0.001855911571
0.04379166667,-0.001853565569
0.0438125,-0.001845736173
0.04383333333,-0.00186557835
0.04385416667,-0.001845571678
0.043875,-0.001814094721
0.04389583333,-0.001750283642
0.04391666667,-0.001729462412
0.0439375,-0.001731639728
0.04395833333,-0.001765966997
0.04397916667,-0.001788370311
0.044,-0.001796852448
0.04402083333,-0.001769541297
0.04404166667,-0.001747168018
0.0440625,-0.001736766077
0.04408333333,-0.001713577891
0.04410416667,-0.001708285883
0.044125,-0.001734639402
0.04414583333,-0.001735636033
0.04416666667,-0.001766475965
0.0441875,-0.001783572254
0.04420833333,-0.001832518145
0.04422916667,-0.001864832244
0.04425,-0.001887462568
0.04427083333,-0.0019055343
0.04429166667,-0.001922506606
0.0443125,-0.001989290817
0.04433333333,-0.002057940699
0.04435416667,-0.002101088874
0.044375,-0.002152473899
0.04439583333,-0.002180599608
0.04441666667,-0.002166603925
0.0444375,-0.002215415938
0.04445833333,-0.002255470725
0.04447916667,-0.002318059793
0.0445,-0.002339645755
0.04452083333,-0.002444172744
0.04454166667,-0.002523235744
0.0445625,-0.002653478412
0.04458333333,-0.002772870008
0.04460416667,-0.002845489886
0.044625,-0.00291708624
0.04464583333,-0.002963351784
0.04466666667,-0.002965408843
0.0446875,-0.002969890134
0.04470833333,-0.002983724233
0.04472916667,-0.002963000443
0.04475,-0.002911782824
0.04477083333,-0.002869020682
0.04479166667,-0.002803266747
0.0448125,-0.00274254987
0.04483333333,-0.002721955534
0.04485416667,-0.002678809687
0.044875,-0.002681958023
0.04489583333,-0.002636899939
0.04491666667,-0.002652173396
0.0449375,-0.00265622884
0.04495833333,-0.002692925045
0.04497916667,-0.002726399107
0.045,-0.002805436729
0.04502083333,-0.00283941417
0.04504166667,-0.002871209523
0.0450625,-0.002871796256
0.04508333333,-0.002858672757
0.04510416667,-0.002853785641
0.045125,-0.002902922453
0.04514583333,-0.002950421534
0.04516666667,-0.003009878565
0.0451875,-0.003048196202
0.04520833333,-0.003090355778
0.04522916667,-0.003130534198
0.04525,-0.003149466822
0.04527083333,-0.003136580577
0.04529166667,-0.003145199036
0.0453125,-0.003099257592
0.04533333333,-0.003091360908
0.04535416667,-0.003028573003
0.045375,-0.002989827422
0.04539583333,-0.002903180663
0.04541666667,-0.002840826288
0.0454375,-0.002784986515
0.04545833333,-0.002738090931
0.04547916667,-0.002645402914
0.0455,-0.002612213138
0.04552083333,-0.002596071921
0.04554166667,-0.002590293298
0.0455625,-0.002678284189
0.04558333333,-0.002722917823
0.04560416667,-0.002787619829
0.045625,-0.002832949627
0.04564583333,-0.00287705753
0.04566666667,-0.002958062803
0.0456875,-0.002991023706
0.04570833333,-0.003049725434
0.04572916667,-0.003115256317
0.04575,-0.0031173022
0.04577083333,-0.003165920265
0.04579166667,-0.003121268936
0.0458125,-0.003126705531
0.04583333333,-0.00311148027
0.04585416667,-0.003126006573
0.045875,-0.003127753502
0.04589583333,-0.003143674228
0.04591666667,-0.003141131718
0.0459375,-0.003194901859
0.04595833333,-0.003199442755
0.04597916667,-0.003199779429
0.046,-0.003168621799
0.04602083333,-0.003198239487
0.04604166667,-0.003185454523
0.0460625,-0.003189783543
0.04608333333,-0.00321306265
0.04610416667,-0.003278471995
0.046125,-0.003289918881
0.04614583333,-0.003305265214
0.04616666667,-0.003312063869
0.0461875,-0.003301962977
0.04620833333,-0.00330996234
0.04622916667,-0.003318164963
0.04625,-0.003380459733
0.04627083333,-0.003422870301
0.04629166667,-0.003471226431
0.0463125,-0.003477535676
0.04633333333,-0.003517874749
0.04635416667,-0.003514807671
0.046375,-0.003576817689
0.04639583333,-0.003566534724
0.04641666667,-0.003625209676
0.0464375,-0.003638518974
0.04645833333,-0.003669370431
0.04647916667,-0.003667290788
0.0465,-0.003719394095
0.04652083333,-0.003732587211
0.04654166667,-0.003872664645
0.0465625,-0.003901623888
0.04658333333,-0.00395254232
0.04660416667,-0.003915701993
0.046625,-0.003985898569
0.04664583333,-0.003995502368
0.04666666667,-0.003972103819
0.0466875,-0.003953186795
0.04670833333,-0.003936063498
0.04672916667,-0.003905894235
0.04675,-0.003919546492
0.04677083333,-0.003891561646
0.04679166667,-0.003879493102
0.0468125,-0.003907104488
0.04683333333,-0.003909046296
0.04685416667,-0.003914972767
0.046875,-0.003915879875
0.04689583333,-0.003917414695
0.04691666667,-0.003881413955
0.0469375,-0.003859712742
0.04695833333,-0.003845868632
0.04697916667,-0.003875643248
0.047,-0.003937103786
0.04702083333,-0.00399151817
0.04704166667,-0.004063792527
0.0470625,-0.004123582505
0.04708333333,-0.004124623723
0.04710416667,-0.004118386656
0.047125,-0.004078662023
0.04714583333,-0.004079722799
0.04716666667,-0.004050153308
0.0471875,-0.004085691646
0.04720833333,-0.004019740969
0.04722916667,-0.004057918675
0.04725,-0.004028592259
0.04727083333,-0.004096427932
0.04729166667,-0.004085727502
0.0473125,-0.004110461101
0.04733333333,-0.004091373645
0.04735416667,-0.00412988849
0.047375,-0.004125768319
0.04739583333,-0.00417507533
0.04741666667,-0.004230708815
0.0474375,-0.004291442223
0.04745833333,-0.004327466711
0.04747916667,-0.004377140664
0.0475,-0.004393843468
0.04752083333,-0.004377034027
0.04754166667,-0.004395637661
0.0475625,-0.004480695352
0.04758333333,-0.004552662838
0.04760416667,-0.004699794576
0.047625,-0.004729139619
0.04764583333,-0.004724587314
0.04766666667,-0.004753460176
0.0476875,-0.004764472134
0.04770833333,-0.004815454595
0.04772916667,-0.004810883664
0.04775,-0.004852786195
0.04777083333,-0.00483656954
0.04779166667,-0.004859833512
0.0478125,-0.004840617068
0.04783333333,-0.004830842838
0.04785416667,-0.00474665314
0.047875,-0.004676422104
0.04789583333,-0.004615799058
0.04791666667,-0.004613988101
0.0479375,-0.004542677663
0.04795833333,-0.004535751417
0.04797916667,-0.004530612845
0.048,-0.004513100721
0.04802083333,-0.004527705722
0.04804166667,-0.004548011813
0.0480625,-0.004513398279
0.04808333333,-0.004516926128
0.04810416667,-0.00441270601
0.048125,-0.004388851114
0.04814583333,-0.004315187689
0.04816666667,-0.00428502867
0.0481875,-0.004206757527
0.04820833333,-0.004158608615
0.04822916667,-0.004102104343
0.04825,-0.004061400425
0.04827083333,-0.00399896875
0.04829166667,-0.003944105469
0.0483125,-0.003961418755
0.04833333333,-0.003945892677
0.04835416667,-0.003965220414
0.048375,-0.003994210623
0.04839583333,-0.003981940914
0.04841666667,-0.003997642081
0.0484375,-0.004002667964
0.04845833333,-0.004002825357
0.04847916667,-0.004021751229
0.0485,-0.004010247067
0.04852083333,-0.00404315535
0.04854166667,-0.004067875445
0.0485625,-0.00406493526
0.04858333333,-0.004004805349
0.04860416667,-0.004028817639
0.048625,-0.003991199192
0.04864583333,-0.004027490504
0.04866666667,-0.004000214394
0.0486875,-0.004033915233
0.04870833333,-0.004045271315
0.04872916667,-0.004049107898
0.04875,-0.004022826441
0.04877083333,-0.004023985472
0.04879166667,-0.003992530517
0.0488125,-0.003954586573
0.04883333333,-0.0038520284
0.04885416667,-0.003814072348
0.048875,-0.003659390379
0.04889583333,-0.003593582194
0.04891666667,-0.003507187823
0.0489375,-0.003495885525
0.04895833333,-0.003473332152
0.04897916667,-0.003446148708
0.049,-0.003481995547
0.04902083333,-0.003469957504
0.04904166667,-0.003461982589
0.0490625,-0.003455571132
0.04908333333,-0.003433801001
0.04910416667,-0.003440218512
0.049125,-0.003390214872
0.04914583333,-0.003322905861
0.04916666667,-0.003272242146
0.0491875,-0.003193410579
0.04920833333,-0.003152626101
0.04922916667,-0.003147188807
0.04925,-0.003158531152
0.04927083333,-0.003104904201
0.04929166667,-0.00310560083
0.0493125,-0.003020796459
0.04933333333,-0.002975645941
0.04935416667,-0.002902951557
0.049375,-0.002929839306
0.04939583333,-0.002868416253
0.04941666667,-0.002850227524
0.0494375,-0.002779870294
0.04945833333,-0.002747164574
0.04947916667,-0.002679549623
0.0495,-0.002694571856
0.04952083333,-0.002626853762
0.04954166667,-0.002642343519
0.0495625,-0.002551517449
0.04958333333,-0.002569704782
0.04960416667,-0.002460717224
0.049625,-0.002448531333
0.04964583333,-0.002363635227
0.04966666667,-0.002299818676
0.0496875,-0.002183358185
0.04970833333,-0.002098377561
0.04972916667,-0.001974043204
0.04975,-0.001875966904
0.04977083333,-0.001805160195
0.04979166667,-0.001746039256
0.0498125,-0.001704415306
0.04983333333,-0.001727508032
0.04985416667,-0.001695236424
0.049875,-0.001621622709
0.04989583333,-0.001617108239
0.04991666667,-0.001612413558
0.0499375,-0.001652451465
0.04995833333,-0.00161699485
0.04997916667,-0.001628953265
0.05,-0.001614209497
0.05002083333,-0.001619586837
0.05004166667,-0.00152574305
0.0500625,-0.001512118382
0.05008333333,-0.001455050893
0.05010416667,-0.001500566606
0.050125,-0.001383053022
0.05014583333,-0.001367581426
0.05016666667,-0.001320968382
0.0501875,-0.001262175501
0.05020833333,-0.001179142157
0.05022916667,-0.001136652194
0.05025,-0.001073655556
0.05027083333,-0.001099569723
0.05029166667,-0.001000380958
0.0503125,-0.0009858694393
0.05033333333,-0.0009261136875
0.05035416667,-0.0008943628054
0.050375,-0.0008533038781
0.05039583333,-0.0008005950949
0.05041666667,-0.0007287253975
0.0504375,-0.0006537960144
0.05045833333,-0.0005370081635
0.05047916667,-0.000456746493
0.0505,-0.0004169757885
0.05052083333,-0.0004038913467
0.05054166667,-0.0003426388139
0.0505625,-0.0003055123379
0.05058333333,-0.0003610462009
0.05060416667,-0.0003792501811
0.050625,-0.0003398626577
0.05064583333,-0.000274262653
0.05066666667,-0.0002880991087
0.0506875,-0.0001777563739
0.05070833333,-0.0001844294602
0.05072916667,-0.0001105047122
0.05075,-0.0001708898199
0.05077083333,-6.187786494e-05
0.05079166667,-3.00338379e-05
0.0508125,-4.309938504e-07
0.05083333333,7.609336171e-05
0.05085416667,0.0001026080208
0.050875,4.526232806e-05
0.05089583333,7.490463031e-05
0.05091666667,3.910141822e-05
0.0509375,0.0001128229706
0.05095833333,6.101910185e-05
0.05097916667,0.0001199159888
0.051,9.279583173e-05
0.05102083333,0.0001693289814
0.05104166667,0.0001175255748
0.0510625,0.0001493238233
0.05108333333,9.779509128e-05
0.05110416667,0.000117163494
0.051125,0.0001433640718
0.05114583333,0.0001911928994
0.05116666667,0.0002515994129
0.0511875,0.0003584026999
0.05120833333,0.0003588390246
0.05122916667,0.0004191862245
0.05125,0.0004393719428
0.05127083333,0.000546194904
0.05129166667,0.0006242491072
0.0513125,0.0006870958605
0.05133333333,0.0007180133252
0.05135416667,0.0006946853828
0.051375,0.0007151722093
0.05139583333,0.0006831561914
0.05141666667,0.0007519294159
0.0514375,0.0008307665121
0.05145833333,0.0009212642326
0.05147916667,0.0009559837054
0.0515,0.001027195947
0.05152083333,0.001041551703
0.05154166667,0.001073959749
0.0515625,0.001168520888
0.05158333333,0.001302662888
0.05160416667,0.001319747884
0.051625,0.001367636258
0.05164583333,0.001397320884
0.05166666667,0.001503369189
0.0516875,0.001471495489
0.05170833333,0.001563541708
0.05172916667,0.001614158391
0.05175,0.001693963306
0.05177083333,0.001778587
0.05179166667,0.001892580069
0.0518125,0.001986247953
0.05183333333,0.002067664871
0.05185416667,0.002110966947
0.051875,0.002206924604
0.05189583333,0.002257749904
0.05191666667,0.002320923842
0.0519375,0.002322001616
0.05195833333,0.002375426702
0.05197916667,0.002415799769
0.052,0.002455571434
0.05202083333,0.002519311616
0.05204166667,0.002541136928
0.0520625,0.002640048508
0.05208333333,0.002763243392
0.05210416667,0.00286212191
0.052125,0.002877715742
0.05214583333,0.002915244317
0.05216666667,0.002948445035
0.0521875,0.003022505203
0.05220833333,0.003124712501
0.05222916667,0.003201616229
0.05225,0.003218772123
0.05227083333,0.003278656164
0.05229166667,0.003302257042
0.0523125,0.003319945186
0.05233333333,0.003319320967
0.05235416667,0.003346403595
0.052375,0.003361535026
0.05239583333,0.003445804352
0.05241666667,0.003431217279
0.0524375,0.003483560402
0.05245833333,0.003553369083
0.05247916667,0.003659114474
0.0525,0.00373679935
0.05252083333,0.003827495268
0.05254166667,0.00393332541
0.0525625,0.004065585323
0.05258333333,0.004158827476
0.05260416667,0.004254307598
0.052625,0.004343836103
0.05264583333,0.004435095005
0.05266666667,0.004532642663
0.0526875,0.004614562728
0.05270833333,0.004634229466
0.05272916667,0.004680650309
0.05275,0.004702787381
0.05277083333,0.004773505032
0.05279166667,0.004801469389
0.0528125,0.004841702525
0.05283333333,0.004900711589
0.05285416667,0.004933247343
0.052875,0.0049239574
0.05289583333,0.004956778139
0.05291666667,0.004989481531
0.0529375,0.00503171701
0.05295833333,0.005040269345
0.05297916667,0.005041379947
0.053,0.005083863623
0.05302083333,0.005047621671
0.05304166667,0.004990387708
0.0530625,0.004949722905
0.05308333333,0.004958913662
0.05310416667,0.004947401118
0.053125,0.00501460582
0.05314583333,0.005006684456
0.05316666667,0.005017315503
0.0531875,0.004980855156
0.05320833333,0.004999624565
0.05322916667,0.005046222359
0.05325,0.005116258748
0.05327083333,0.005144995172
0.05329166667,0.005225761328
0.0533125,0.005250289105
0.05333333333,0.005300791468
0.05335416667,0.005346759222
0.053375,0.005417106207
0.05339583333,0.005463026464
0.05341666667,0.005479548592
0.0534375,0.005528392736
0.05345833333,0.005580910482
0.05347916667,0.005614101421
0.0535,0.005660350434
0.05352083333,0.005729294382
0.05354166667,0.005711457692
0.0535625,0.005792604759
0.05358333333,0.005808903836
0.05360416667,0.005837342702
0.053625,0.005827443674
0.05364583333,0.005844085477
0.05366666667,0.005947986618
0.0536875,0.006018850021
0.05370833333,0.006057732273
0.05372916667,0.006112863775
0.05375,0.006177272182
0.05377083333,0.006273710635
0.05379166667,0.006320513785
0.0538125,0.006414941512
0.05383333333,0.006410344969
0.05385416667,0.006424966268
0.053875,0.006403495558
0.05389583333,0.006425182801
0.05391666667,0.006470929366
0.0539375,0.006509319413
0.05395833333,0.006558309775
0.05397916667,0.006609028205
0.054,0.006603564136
0.05402083333,0.006643519271
0.05404166667,0.006660110783
0.0540625,0.006694920827
0.05408333333,0.006738473661
0.05410416667,0.006708340719
0.054125,0.00672704773
0.05414583333,0.006767457817
0.05416666667,0.006737209391
0.0541875,0.006693603005
0.05420833333,0.006693019066
0.05422916667,0.006725904997
0.05425,0.006790961605
0.05427083333,0.006834763568
0.05429166667,0.006880612113
0.0543125,0.006918330211
0.05433333333,0.00698934542
0.05435416667,0.007012476213
0.054375,0.007079339586
0.05439583333,0.007147968281
0.05441666667,0.00722627528
0.0544375,0.007273554802
0.05445833333,0.007342984434
0.05447916667,0.007415528409
0.0545,0.007533296943
0.05452083333,0.007634266745
0.05454166667,0.007752103265
0.0545625,0.007788781542
0.05458333333,0.00785164535
0.05460416667,0.007843096741
0.054625,0.007846403867
0.05464583333,0.007821699604
0.05466666667,0.007802273147
0.0546875,0.007812108845
0.05470833333,0.007815810852
0.05472916667,0.007805555128
0.05475,0.007797299884
0.05477083333,0.007766585331
0.05479166667,0.007763265632
0.0548125,0.007754917257
0.05483333333,0.007741299458
0.05485416667,0.007745478768
0.054875,0.007716611493
0.05489583333,0.007674568798
0.05491666667,0.007607455831
0.0549375,0.007593062241
0.05495833333,0.007561859675
0.05497916667,0.007527647074
0.055,0.007491857745
0.05502083333,0.007486803923
0.05504166667,0.00747198239
0.0550625,0.007527856622
0.05508333333,0.007596718147
0.05510416667,0.007663959637
0.055125,0.007690902334
0.05514583333,0.007744044997
0.05516666667,0.007779455744
0.0551875,0.007862639613
0.05520833333,0.007891282439
0.05522916667,0.007942508906
0.05525,0.007939605974
0.05527083333,0.007923409343
0.05529166667,0.007897387259
0.0553125,0.007887858897
0.05533333333,0.007945021614
0.05535416667,0.007972265594
0.055375,0.007924754173
0.05539583333,0.007881801575
0.05541666667,0.007849160582
0.0554375,0.007859692909
0.05545833333,0.007907769643
0.05547916667,0.007969748229
0.0555,0.007972695865
0.05552083333,0.007973396219
0.05554166667,0.007886823267
0.0555625,0.007869631983
0.05558333333,0.007847142406
0.05560416667,0.007903280668
0.055625,0.007943640463
0.05564583333,0.007929227315
0.05566666667,0.007929237559
0.0556875,0.007889403962
0.05570833333,0.007884095423
0.05572916667,0.007889807224
0.05575,0.007951501757
0.05577083333,0.007928133942
0.05579166667,0.007891530171
0.0558125,0.007896089926
0.05583333333,0.007953290828
0.05585416667,0.008001079783
0.055875,0.008135829121
0.05589583333,0.00820373185
0.05591666667,0.008258854039
0.0559375,0.008248340338
0.05595833333,0.008276074193
0.05597916667,0.008296087384
0.056,0.0083849933
0.05602083333,0.008400584571
0.05604166667,0.008432828821
0.0560625,0.008350350894
0.05608333333,0.008377178572
0.05610416667,0.008393028751
0.056125,0.008417351171
0.05614583333,0.008469539694
0.05616666667,0.008489797823
0.0561875,0.008492583409
0.05620833333,0.008485575207
0.05622916667,0.008521354757
0.05625,0.008558656089
0.05627083333,0.008640388027
0.05629166667,0.008728400804
0.0563125,0.008851381019
0.05633333333,0.00893319305
0.05635416667,0.009034116752
0.056375,0.0091046663
0.05639583333,0.009161571972
0.05641666667,0.009127332829
0.0564375,0.009164089337
0.05645833333,0.00918148458
0.05647916667,0.009283438325
0.0565,0.009278802201
0.05652083333,0.009350771084
0.05654166667,0.009381317534
0.0565625,0.009467018768
0.05658333333,0.009560061619
0.05660416667,0.00960164424
0.056625,0.009623520076
0.05664583333,0.009616484866
0.05666666667,0.009635767899
0.0566875,0.009633560665
0.05670833333,0.009566094726
0.05672916667,0.009565056302
0.05675,0.009555205703
0.05677083333,0.009580519982
0.05679166667,0.009626037441
0.0568125,0.009651360102
0.05683333333,0.009671867825
0.05685416667,0.009710963815
0.056875,0.009771071374
0.05689583333,0.009821375832
0.05691666667,0.009890682995
0.0569375,0.009881987236
0.05695833333,0.009930062108
0.05697916667,0.009957904927
0.057,0.009977568872
0.05702083333,0.009988456964
0.05704166667,0.009990486316
0.0570625,0.009999209084
0.05708333333,0.01003435161
0.05710416667,0.01002630778
0.057125,0.01004730444
0.05714583333,0.009981746785
0.05716666667,0.009952605702
0.0571875,0.009866497479
0.05720833333,0.009843455628
0.05722916667,0.00977547653
0.05725,0.009769240394
0.05727083333,0.009708251804
0.05729166667,0.009671458974
0.0573125,0.009585818276
0.05733333333,0.009527813643
0.05735416667,0.009458007291
0.057375,0.009418406524
0.05739583333,0.009297783487
0.05741666667,0.00920879934
0.0574375,0.009097505361
0.05745833333,0.009074218571
0.05747916667,0.008994164877
0.0575,0.008967853151
0.05752083333,0.00892929174
0.05754166667,0.008910692297
0.0575625,0.008892496116
0.05758333333,0.00879955478
0.05760416667,0.008755001239
0.057625,0.0087105399
0.05764583333,0.008657380939
0.05766666667,0.008575350977
0.0576875,0.008516622707
0.05770833333,0.008506608196
0.05772916667,0.00852812361
0.05775,0.008531668223
0.05777083333,0.008546387777
0.05779166667,0.008548109792
0.0578125,0.008524950594
0.05783333333,0.008497009054
0.05785416667,0.00851389952
0.057875,0.008432766423
0.05789583333,0.008413678035
0.05791666667,0.00836593844
0.0579375,0.008357986808
0.05795833333,0.00829247199
0.05797916667,0.008303296752
0.058,0.008258562535
0.05802083333,0.008233365603
0.05804166667,0.008189473301
0.0580625,0.008143801242
0.05808333333,0.008043618873
0.05810416667,0.007955561392
0.058125,0.00788640976
0.05814583333,0.007880795747
0.05816666667,0.007841591723
0.0581875,0.00785319414
0.05820833333,0.007830404676
0.05822916667,0.007779438049
0.05825,0.007697308436
0.05827083333,0.007614999078
0.05829166667,0.007527723908
0.0583125,0.007432524115
0.05833333333,0.007327992469
0.05835416667,0.007235750556
0.058375,0.007216889411
0.05839583333,0.007172134705
0.05841666667,0.00715004839
0.0584375,0.007144304924
0.05845833333,0.007168320939
0.05847916667,0.007169707213
0.0585,0.007168252952
0.05852083333,0.007136472035
0.05854166667,0.007180599496
0.0585625,0.00719190808
0.05858333333,0.007259804755
0.05860416667,0.007291977294
0.058625,0.007389258128
0.05864583333,0.007402875461
0.05866666667,0.007433832623
0.0586875,0.007441723254
0.05870833333,0.007476138882
0.05872916667,0.007419216912
0.05875,0.007373214234
0.05877083333,0.007374723442
0.05879166667,0.007409366779
0.0588125,0.007420547307
0.05883333333,0.007428361103
0.05885416667,0.007376883179
0.058875,0.007360218558
0.05889583333,0.007295500953
0.05891666667,0.007221160457
0.0589375,0.007136334665
0.05895833333,0.007096193731
0.05897916667,0.007046517916
0.059,0.00702366
0.05902083333,0.00698831724
0.05904166667,0.006926183123
0.0590625,0.006908019539
0.05908333333,0.006861080416
0.05910416667,0.006824289449
0.059125,0.006738479249
0.05914583333,0.006668429822
0.05916666667,0.00651994301
0.0591875,0.006361771375
0.05920833333,0.006190740503
0.05922916667,0.006076448131
0.05925,0.005974532105
0.05927083333,0.005893898197
0.05929166667,0.005789468996
0.0593125,0.005770696327
0.05933333333,0.005676798057
0.05935416667,0.005663777236
0.059375,0.005543825682
0.05939583333,0.005515188444
0.05941666667,0.00540901674
0.0594375,0.005337008741
0.05945833333,0.005273222923
0.05947916667,0.005253156181
0.0595,0.005176870152
0.05952083333,0.005130195059
0.05954166667,0.005080961622
0.0595625,0.005011341535
0.05958333333,0.004942359403
0.05960416667,0.00487616146
0.059625,0.004788729828
0.05964583333,0.004720232449
0.05966666667,0.00463653449
0.0596875,0.004525930621
0.05970833333,0.004466837272
0.05972916667,0.004373259377
0.05975,0.004392019007
0.05977083333,0.004327693954
0.05979166667,0.004327022471
0.0598125,0.004309682641
0.05983333333,0.004310599528
0.05985416667,0.004228611477
0.059875,0.004145054147
0.05989583333,0.00404859893
0.05991666667,0.003960856702
0.0599375,0.003890513442
0.05995833333,0.00389207853
0.05997916667,0.003883599304
0.06,0.003867850639
0.06002083333,0.003827602603
0.06004166667,0.003793886863
0.0600625,0.003729473334
0.06008333333,0.003701991402
0.06010416667,0.003624454373
0.060125,0.003612474073
0.06014583333,0.003553046612
0.06016666667,0.003574000904
0.0601875,0.003539854428
0.06020833333,0.003492622869
0.06022916667,0.003467564471
0.06025,0.003412264399
0.06027083333,0.003383003408
0.06029166667,0.003335266607
0.0603125,0.003262481885
0.06033333333,0.003219039878
0.06035416667,0.003198228078
0.060375,0.003158973996
0.06039583333,0.003154629376
0.06041666667,0.003087618388
0.0604375,0.003009187989
0.06045833333,0.002857216867
0.06047916667,0.002801827388
0.0605,0.002705328399
0.06052083333,0.00266076508
0.06054166667,0.002581994981
0.0605625,0.002576692263
0.06058333333,0.002518651774
0.06060416667,0.002452176996
0.060625,0.002277442254
0.06064583333,0.002176282229
0.06066666667,0.001998487394
0.0606875,0.001832836308
0.06070833333,0.001712711761
0.06072916667,0.001624471508
0.06075,0.001430561533
0.06077083333,0.001426735544
0.06079166667,0.001395577798
0.0608125,0.001373970765
0.06083333333,0.001257186872
0.06085416667,0.001252044924
0.060875,0.001183946151
0.06089583333,0.001105766627
0.06091666667,0.00104868284
0.0609375,0.0009861362632
0.06095833333,0.0009075130802
0.06097916667,0.0008138802368
0.061,0.0007077967748
0.06102083333,0.0006304374547
0.06104166667,0.0005747347022
0.0610625,0.0005176173872
0.06108333333,0.0004689980706
0.06110416667,0.000441191456
0.061125,0.000418956246
0.06114583333,0.0003617373586
0.06116666667,0.0003367124591
0.0611875,0.0002723079524
0.06120833333,0.0002761864744
0.06122916667,0.0001980388333
0.06125,0.0001658317924
0.06127083333,0.0001047797487
0.06129166667,9.379846597e-05
0.0613125,2.916391168e-05
0.06133333333,-9.427437362e-06
0.06135416667,-0.0001113588442
0.061375,-0.0001552752947
0.06139583333,-0.0002533161896
0.06141666667,-0.0003026771883
0.0614375,-0.0003863554157
0.06145833333,-0.0004348933871
0.06147916667,-0.0005316146999
0.0615,-0.0006317539955
0.06152083333,-0.0007064181846
0.06154166667,-0.0007581669488
0.0615625,-0.0008382811793
0.06158333333,-0.0009020555299
0.06160416667,-0.0009398133261
0.061625,-0.000946685439
0.06164583333,-0.0009756818763
0.06166666667,-0.001044800854
0.0616875,-0.001130657503
0.06170833333,-0.001155390404
0.06172916667,-0.001135269878
0.06175,-0.001177929458
0.06177083333,-0.001236856333
0.06179166667,-0.00126659777
0.0618125,-0.001243117033
0.06183333333,-0.001230290974
0.06185416667,-0.001237588353
0.061875,-0.001321439631
0.06189583333,-0.001331701991
0.06191666667,-0.00135693932
0.0619375,-0.001385124517
0.06195833333,-0.001465103123
0.06197916667,-0.001527522807
0.062,-0.001601463067
0.06202083333,-0.001685165334
0.06204166667,-0.001761935651
0.0620625,-0.001812936505
0.06208333333,-0.001886059064
0.06210416667,-0.001977652311
0.062125,-0.002103694715
0.06214583333,-0.002220595255
0.06216666667,-0.002370049013
0.0621875,-0.00246754312
0.06220833333,-0.002573556267
0.06222916667,-0.002645438537
0.06225,-0.00272565987
0.06227083333,-0.002777902642
0.06229166667,-0.00286494894
0.0623125,-0.002937508514
0.06233333333,-0.002985407133
0.06235416667,-0.003021056997
0.062375,-0.003034402849
0.06239583333,-0.003062863601
0.06241666667,-0.003083828837
0.0624375,-0.003082722891
0.06245833333,-0.003041191725
0.06247916667,-0.003030751133
0.0625,-0.003021088662
0.06252083333,-0.003000444965
0.06254166667,-0.003025906393
0.0625625,-0.003032133449
0.06258333333,-0.003040314652
0.06260416667,-0.003080507973
0.062625,-0.003137293039
0.06264583333,-0.003205737798
0.06266666667,-0.003274831222
0.0626875,-0.003358843969
0.06270833333,-0.003407342359
0.06272916667,-0.00350024621
0.06275,-0.00357925077
0.06277083333,-0.003636954119
0.06279166667,-0.003697253531
0.0628125,-0.003771123476
0.06283333333,-0.003836110933
0.06285416667,-0.003914530855
0.062875,-0.003949627746
0.06289583333,-0.004073178396
0.06291666667,-0.004087880719
0.0629375,-0.004119729623
0.06295833333,-0.004148138687
0.06297916667,-0.004196856637
0.063,-0.004245394375
0.06302083333,-0.004240886308
0.06304166667,-0.004203823395
0.0630625,-0.00418161042
0.06308333333,-0.004166307859
0.06310416667,-0.004205358215
0.063125,-0.004228843842
0.06314583333,-0.004304491449
0.06316666667,-0.004350910895
0.0631875,-0.004408025183
0.06320833333,-0.004460966215
0.06322916667,-0.004518665373
0.06325,-0.004605436698
0.06327083333,-0.004654888064
0.06329166667,-0.00472233491
0.0633125,-0.00477620028
0.06333333333,-0.004831106868
0.06335416667,-0.004891762976
0.063375,-0.004967775661
0.06339583333,-0.005025938153
0.06341666667,-0.00506854197
0.0634375,-0.005100567825
0.06345833333,-0.005120310467
0.06347916667,-0.005188903306
0.0635,-0.005266821943
0.06352083333,-0.005319966003
0.06354166667,-0.005402365234
0.0635625,-0.005447079893
0.06358333333,-0.005532667972
0.06360416667,-0.005560831632
0.063625,-0.00557992328
0.06364583333,-0.00559419021
0.06366666667,-0.005626954604
0.0636875,-0.005667847116
0.06370833333,-0.005683354102
0.06372916667,-0.005691895261
0.06375,-0.005719148088
0.06377083333,-0.005730505101
0.06379166667,-0.005735755432
0.0638125,-0.005727714859
0.06383333333,-0.00574716134
0.06385416667,-0.005728859454
0.063875,-0.00574622117
0.06389583333,-0.005789448041
0.06391666667,-0.005809663329
0.0639375,-0.005840563215
0.06395833333,-0.005862432066
0.06397916667,-0.005915792659
0.064,-0.006013182923
0.06402083333,-0.006080977153
0.06404166667,-0.006128191482
0.0640625,-0.006176838651
0.06408333333,-0.0062290309
0.06410416667,-0.006279719993
0.064125,-0.006348782219
0.06414583333,-0.006395729724
0.06416666667,-0.006446306594
0.0641875,-0.006494639441
0.06420833333,-0.006533489097
0.06422916667,-0.006599028595
0.06425,-0.006668503396
0.06427083333,-0.006773118861
0.06429166667,-0.006831520237
0.0643125,-0.006893475074
0.06433333333,-0.006943337619
0.06435416667,-0.007031004876
0.064375,-0.00710054487
0.06439583333,-0.007196503691
0.06441666667,-0.007263086736
0.0644375,-0.007311785594
0.06445833333,-0.00737591926
0.06447916667,-0.007445552852
0.0645,-0.007491599303
0.06452083333,-0.007548726164
0.06454166667,-0.007583162282
0.0645625,-0.00762325339
0.06458333333,-0.007651933935
0.06460416667,-0.00769523019
0.064625,-0.00771373231
0.06464583333,-0.007762764581
0.06466666667,-0.007795345038
0.0646875,-0.007839920931
0.06470833333,-0.007857220247
0.06472916667,-0.007833284326
0.06475,-0.00786665082
0.06477083333,-0.007924860343
0.06479166667,-0.00799582433
0.0648125,-0.008055849932
0.06483333333,-0.008104045875
0.06485416667,-0.008173849434
0.064875,-0.008238078095
0.06489583333,-0.008321893401
0.06491666667,-0.008440915495
0.0649375,-0.008558999747
0.06495833333,-0.008684962057
0.06497916667,-0.008746356703
0.065,-0.008803643286
0.06502083333,-0.008876844309
0.06504166667,-0.008926773444
0.0650625,-0.008912399411
0.06508333333,-0.008917964995
0.06510416667,-0.008898962289
0.065125,-0.008919738233
0.06514583333,-0.008949168026
0.06516666667,-0.008978755213
0.0651875,-0.008994449861
0.06520833333,-0.009007245302
0.06522916667,-0.009022446349
0.06525,-0.009055197239
0.06527083333,-0.009056161158
0.06529166667,-0.009092260152
0.0653125,-0.009107372724
0.06533333333,-0.009148180485
0.06535416667,-0.009180635214
0.065375,-0.009237376042
0.06539583333,-0.009308872744
0.06541666667,-0.009326677769
0.0654375,-0.009345728904
0.06545833333,-0.009362843819
0.06547916667,-0.009334049188
0.0655,-0.009328825399
0.06552083333,-0.009351625107
0.06554166667,-0.009362565354
0.0655625,-0.009388460778
0.06558333333,-0.009420611896
0.06560416667,-0.009425026365
0.065625,-0.009382304735
0.06564583333,-0.009321433492
0.06566666667,-0.009269475006
0.0656875,-0.009252793156
0.06570833333,-0.009202706628
0.06572916667,-0.009236243553
0.06575,-0.009164989926
0.06577083333,-0.009141333401
0.06579166667,-0.009123854339
0.0658125,-0.009110219777
0.06583333333,-0.009119907394
0.06585416667,-0.009140498005
0.065875,-0.009087454528
0.06589583333,-0.009047594853
0.06591666667,-0.008970065042
0.0659375,-0.008938932791
0.06595833333,-0.008919121698
0.06597916667,-0.00889247749
0.066,-0.008860517293
0.06602083333,-0.008837054484
0.06604166667,-0.008785375394
0.0660625,-0.008728132583
0.06608333333,-0.008662571199
0.06610416667,-0.008616319858
0.066125,-0.008578559384
0.06614583333,-0.008529718965
0.06616666667,-0.008527098224
0.0661875,-0.008524021134
0.06620833333,-0.008541202173
0.06622916667,-0.00855514966
0.06625,-0.008559716865
0.06627083333,-0.008536719717
0.06629166667,-0.008539879695
0.0663125,-0.008536443114
0.06633333333,-0.008559131995
0.06635416667,-0.008540802635
0.066375,-0.008564041927
0.06639583333,-0.008552602492
0.06641666667,-0.008584479801
0.0664375,-0.00860302709
0.06645833333,-0.008632787503
0.06647916667,-0.008603102528
0.0665,-0.008626070805
0.06652083333,-0.008640260436
0.06654166667,-0.008717384189
0.0665625,-0.008728729561
0.06658333333,-0.008754739538
0.06660416667,-0.008791444823
0.066625,-0.00882346835
0.06664583333,-0.008858106099
0.06666666667,-0.008900167421
0.0666875,-0.008892911486
0.06670833333,-0.008929609321
0.06672916667,-0.0089149056
0.06675,-0.008925140835
0.06677083333,-0.008885944262
0.06679166667,-0.00886615552
0.0668125,-0.008847450837
0.06683333333,-0.008821981028
0.06685416667,-0.008794255555
0.066875,-0.008746501058
0.06689583333,-0.008707886562
0.06691666667,-0.008674769662
0.0669375,-0.008730152622
0.06695833333,-0.008765753359
0.06697916667,-0.008790288121
0.067,-0.008797878399
0.06702083333,-0.008796623908
0.06704166667,-0.008800975978
0.0670625,-0.008798762225
0.06708333333,-0.008787299506
0.06710416667,-0.008817822672
0.067125,-0.008813544177
0.06714583333,-0.00883231964
0.06716666667,-0.008770421147
0.0671875,-0.008735937998
0.06720833333,-0.008686341345
0.06722916667,-0.008681194857
0.06725,-0.008640898392
0.06727083333,-0.008627575822
0.06729166667,-0.008574954234
0.0673125,-0.00855964981
0.06733333333,-0.008507735096
0.06735416667,-0.008471701294
0.067375,-0.008391441777
0.06739583333,-0.008338183165
0.06741666667,-0.008284315467
0.0674375,-0.008242279291
0.06745833333,-0.008169183508
0.06747916667,-0.00810940098
0.0675,-0.00802354794
0.06752083333,-0.007984419353
0.06754166667,-0.007948896848
0.0675625,-0.0079094721
0.06758333333,-0.007866888307
0.06760416667,-0.007790690288
0.067625,-0.007745755371
0.06764583333,-0.007706683129
0.06766666667,-0.007683374453
0.0676875,-0.007666741963
0.06770833333,-0.00763313612
0.06772916667,-0.007591782603
0.06775,-0.007534206379
0.06777083333,-0.007485738024
0.06779166667,-0.00749939587
0.0678125,-0.00744353421
0.06783333333,-0.007403112482
0.06785416667,-0.007370474748
0.067875,-0.00733868964
0.06789583333,-0.007286179345
0.06791666667,-0.007244995795
0.0679375,-0.007181063294
0.06795833333,-0.007124396972
0.06797916667,-0.007055796217
0.068,-0.007010483649
0.06802083333,-0.006968449336
0.06804166667,-0.006948347203
0.0680625,-0.006902514491
0.06808333333,-0.006893783808
0.06810416667,-0.006835819222
0.068125,-0.006804413162
0.06814583333,-0.006775308866
0.06816666667,-0.006772732362
0.0681875,-0.006736208219
0.06820833333,-0.006702678278
0.06822916667,-0.006665898021
0.06825,-0.006648385432
0.06827083333,-0.006625084206
0.06829166667,-0.006581496913
0.0683125,-0.006555558182
0.06833333333,-0.00655093696
0.06835416667,-0.006548973732
0.068375,-0.006540510338
0.06839583333,-0.006526578218
0.06841666667,-0.006489309948
0.0684375,-0.006501808297
0.06845833333,-0.006490121596
0.06847916667,-0.006491486449
0.0685,-0.006426281296
0.06852083333,-0.006359679159
0.06854166667,-0.006273176987
0.0685625,-0.006223776843
0.06858333333,-0.006164093502
0.06860416667,-0.006138401572
0.068625,-0.00608697813
0.06864583333,-0.006036530249
0.06866666667,-0.005944973789
0.0686875,-0.00592022948
0.06870833333,-0.005834814161
0.06872916667,-0.005818922073
0.06875,-0.005760071799
0.06877083333,-0.005740930792
0.06879166667,-0.005669855978
0.0688125,-0.005575500894
0.06883333333,-0.005517502781
0.06885416667,-0.005425211042
0.068875,-0.005342355929
0.06889583333,-0.005296770483
0.06891666667,-0.00524377171
0.0689375,-0.005232259165
0.06895833333,-0.005185115617
0.06897916667,-0.005178251304
0.069,-0.00511694327
0.06902083333,-0.005058546551
0.06904166667,-0.005016363692
0.0690625,-0.004975272343
0.06908333333,-0.004915404599
0.06910416667,-0.004829050507
0.069125,-0.004760914482
0.06914583333,-0.00467187725
0.06916666667,-0.004619292449
0.0691875,-0.0045498861
0.06920833333,-0.004511493724
0.06922916667,-0.004448536318
0.06925,-0.004422325641
0.06927083333,-0.004353227094
0.06929166667,-0.00434411224
0.0693125,-0.004290684126
0.06933333333,-0.004269959871
0.06935416667,-0.004219966009
0.069375,-0.004205379635
0.06939583333,-0.004126634914
0.06941666667,-0.004099681508
0.0694375,-0.004052842502
0.06945833333,-0.004019407555
0.06947916667,-0.00393678993
0.0695,-0.003861950245
0.06952083333,-0.003751326352
0.06954166667,-0.003674146254
0.0695625,-0.003568164539
0.06958333333,-0.003503711894
0.06960416667,-0.003364305943
0.069625,-0.003242829815
0.06964583333,-0.003093081061
0.06966666667,-0.002964188345
0.0696875,-0.002837835345
0.06970833333,-0.002718624659
0.06972916667,-0.002615433652
0.06975,-0.002472837456
0.06977083333,-0.002367573325
0.06979166667,-0.002163580619
0.0698125,-0.002040900523
0.06983333333,-0.001938214991
0.06985416667,-0.001846521744
0.069875,-0.001779433922
0.06989583333,-0.001716000843
0.06991666667,-0.001589991152
0.0699375,-0.001549900859
0.06995833333,-0.001458943472
0.06997916667,-0.001437575673
0.07,-0.00136407197
0.07002083333,-0.001284606173
0.07004166667,-0.001206057612
0.0700625,-0.001154417288
0.07008333333,-0.001092193299
0.07010416667,-0.001094794832
0.070125,-0.001038172515
0.07014583333,-0.00101547956
0.07016666667,-0.0009818208637
0.0701875,-0.0009507498471
0.07020833333,-0.0008928508032
0.07022916667,-0.000859209511
0.07025,-0.000802491908
0.07027083333,-0.000776565983
0.07029166667,-0.0007104740362
0.0703125,-0.000686350686
0.07033333333,-0.0006456655683
0.07035416667,-0.0006101377076
0.070375,-0.0005836908822
0.07039583333,-0.0005501582636
0.07041666667,-0.0004888226977
0.0704375,-0.0004130581219
0.07045833333,-0.0003316848306
0.07047916667,-0.0002547129407
0.0705,-0.0002155618567
0.07052083333,-0.0001572037872
0.07054166667,-0.0001416497398
0.0705625,-4.809960956e-05
0.07058333333,1.683469964e-05
0.07060416667,0.0001042227814
0.070625,9.820912237e-05
0.07064583333,0.0001388038945
0.07066666667,0.0001258132979
0.0706875,0.0001978549699
0.07070833333,0.000234297986
0.07072916667,0.0002770854044
0.07075,0.0003046576749
0.07077083333,0.0003796560341
0.07079166667,0.0004269450437
0.0708125,0.0005260498147
0.07083333333,0.0005329218693
0.07085416667,0.0006106979563
0.070875,0.0006478508003
0.07089583333,0.0007150004967
0.07091666667,0.0007924547535
0.0709375,0.000841389643
0.07095833333,0.0008535702946
0.07097916667,0.0008823723183
0.071,0.0008966225432
0.07102083333,0.0009420394781
0.07104166667,0.0009909035871
0.0710625,0.001022824901
0.07108333333,0.001058201538
0.07110416667,0.001076216809
0.071125,0.00111767638
0.07114583333,0.00114775449
0.07116666667,0.001177165075
0.0711875,0.001175398822
0.07120833333,0.001197537174
0.07122916667,0.001201654202
0.07125,0.001241459278
0.07127083333,0.001227416098
0.07129166667,0.001244595158
0.0713125,0.001239774399
0.07133333333,0.001263772836
0.07135416667,0.0012601458
0.071375,0.001298606978
0.07139583333,0.001326206606
0.07141666667,0.001396155683
0.0714375,0.001429731608
0.07145833333,0.001528426888
0.07147916667,0.001589695457
0.0715,0.001677977736
0.07152083333,0.001762395492
0.07154166667,0.001864244579
0.0715625,0.001943740179
0.07158333333,0.00200809096
0.07160416667,0.002079387195
0.071625,0.002167757833
0.07164583333,0.002265763702
0.07166666667,0.002353498945
0.0716875,0.002410595305
0.07170833333,0.002488670172
0.07172916667,0.002535556909
0.07175,0.002607676433
0.07177083333,0.002666313667
0.07179166667,0.002722617704
0.0718125,0.002800611313
0.07183333333,0.002865743125
0.07185416667,0.002940784674
0.071875,0.002988061868
0.07189583333,0.003061277093
0.07191666667,0.003107918659
0.0719375,0.003162870649
0.07195833333,0.003220724408
0.07197916667,0.003289776621
0.072,0.003338011913
0.07202083333,0.003410880454
0.07204166667,0.003479494015
0.0720625,0.003572026966
0.07208333333,0.003642709926
0.07210416667,0.003761606989
0.072125,0.003853974631
0.07214583333,0.003944655415
0.07216666667,0.004004881252
0.0721875,0.004089429509
0.07220833333,0.004173280206
0.07222916667,0.004268403165
0.07225,0.004353652243
0.07227083333,0.0044335844
0.07229166667,0.004494702909
0.0723125,0.004547406919
0.07233333333,0.004553277045
0.07235416667,0.004590240773
0.072375,0.004621779546
0.07239583333,0.004675724544
0.07241666667,0.004746868275
0.0724375,0.00480002258
0.07245833333,0.004840843379
0.07247916667,0.004869840108
0.0725,0.004886033013
0.07252083333,0.004893525038
0.07254166667,0.004905932117
0.0725625,0.004938516766
0.07258333333,0.004976863973
0.07260416667,0.005016073119
0.072625,0.005035735667
0.07264583333,0.005055232439
0.07266666667,0.005100599956
0.0726875,0.005142922048
0.07270833333,0.005217478611
0.07272916667,0.005281402264
0.07275,0.005359683651
0.07277083333,0.005425470881
0.07279166667,0.005488964263
0.0728125,0.005530756898
0.07283333333,0.005591444205
0.07285416667,0.0056207343
0.072875,0.005697761197
0.07289583333,0.005739320535
0.07291666667,0.005779484753
0.0729375,0.005797712598
0.07295833333,0.005836713128
0.07297916667,0.005878939293
0.073,0.005919745658
0.07302083333,0.0059305951
0.07304166667,0.005968048237
0.0730625,0.005971051287
0.07308333333,0.005984414369
0.07310416667,0.00600111438
0.073125,0.006027688272
0.07314583333,0.006041604094
0.07316666667,0.006038289983
0.0731875,0.00603523897
0.07320833333,0.006037721876
0.07322916667,0.006042222027
0.07325,0.006056602113
0.07327083333,0.006078792736
0.07329166667,0.006078409497
0.0733125,0.006079613231
0.07333333333,0.006074702833
0.07335416667,0.006083093118
0.073375,0.006093383301
0.07339583333,0.006113978103
0.07341666667,0.006156575866
0.0734375,0.006209306419
0.07345833333,0.006258752197
0.07347916667,0.006283178926
0.0735,0.006312242709
0.07352083333,0.006390747614
0.07354166667,0.006434656214
0.0735625,0.006491332781
0.07358333333,0.006539714057
0.07360416667,0.006591810845
0.073625,0.006651026197
0.07364583333,0.00672224164
0.07366666667,0.006778253708
0.0736875,0.006792296655
0.07370833333,0.006814094726
0.07372916667,0.006856310647
0.07375,0.006882960908
0.07377083333,0.00691607222
0.07379166667,0.006943827495
0.0738125,0.006982656661
0.07383333333,0.007004288957
0.07385416667,0.007077708375
0.073875,0.007107644808
0.07389583333,0.007127595134
0.07391666667,0.00714557711
0.0739375,0.007159180939
0.07395833333,0.007183243055
0.07397916667,0.007191256154
0.074,0.007216401398
0.07402083333,0.007274770178
0.07404166667,0.007311104331
0.0740625,0.007354949601
0.07408333333,0.00735671632
0.07410416667,0.007383754477
0.074125,0.00737854233
0.07414583333,0.007395431865
0.07416666667,0.007439373061
0.0741875,0.007490460295
0.07420833333,0.007563169114
0.07422916667,0.007598585449
0.07425,0.007636635099
0.07427083333,0.007634807844
0.07429166667,0.007666456513
0.0743125,0.007711744867
0.07433333333,0.007801569998
0.07435416667,0.007888579741
0.074375,0.007951103151
0.07439583333,0.007974832319
0.07441666667,0.007997943088
0.0744375,0.008022173308
0.07445833333,0.008055157028
0.07447916667,0.00809641555
0.0745,0.008149502799
0.07452083333,0.008162475191
0.07454166667,0.008180347271
0.0745625,0.008184472099
0.07458333333,0.008226297796
0.07460416667,0.008224425837
0.074625,0.008245280944
0.07464583333,0.008263208903
0.07466666667,0.008252034895
0.0746875,0.008256750181
0.07470833333,0.008281840943
0.07472916667,0.008307965472
0.07475,0.008331068791
0.07477083333,0.00831852667
0.07479166667,0.008345048875
0.0748125,0.008358917199
0.07483333333,0.008396710269
0.07485416667,0.008446822874
0.074875,0.00846492406
0.07489583333,0.00849709101
0.07491666667,0.008512514643
0.0749375,0.008513447829
0.07495833333,0.008496431634
0.07497916667,0.008484788239
0.075,0.008486334234
0.07502083333,0.008481312543
0.07504166667,0.008462341502
0.0750625,0.008446451277
0.07508333333,0.008426117711
0.07510416667,0.008408166468
0.075125,0.00836591702
0.07514583333,0.008354897611
0.07516666667,0.008367710747
0.0751875,0.008390533738
0.07520833333,0.008417042904
0.07522916667,0.008434699848
0.07525,0.008435302414
0.07527083333,0.008467468433
0.07529166667,0.008493505418
0.0753125,0.008515561931
0.07533333333,0.008500628173
0.07535416667,0.008526664227
0.075375,0.008550510742
0.07539583333,0.008609722368
0.07541666667,0.00866681058
0.0754375,0.008722128347
0.07545833333,0.008751231246
0.07547916667,0.008800939657
0.0755,0.008811382577
0.07552083333,0.008828515187
0.07554166667,0.008844663389
0.0755625,0.008878920227
0.07558333333,0.008903726004
0.07560416667,0.008929515257
0.075625,0.008950185962
0.07564583333,0.008961460553
0.07566666667,0.008968693204
0.0756875,0.008992084302
0.07570833333,0.009029438719
0.07572916667,0.009052556008
0.07575,0.0091013778
0.07577083333,0.009150987491
0.07579166667,0.009190088138
0.0758125,0.009194376878
0.07583333333,0.009212255478
0.07585416667,0.009234331548
0.075875,0.009261647239
0.07589583333,0.009290035814
0.07591666667,0.009331210516
0.0759375,0.009351972491
0.07595833333,0.009381965734
0.07597916667,0.009394415654
0.076,0.00943919085
0.07602083333,0.009443196468
0.07604166667,0.009438469075
0.0760625,0.009423936717
0.07608333333,0.009428087622
0.07610416667,0.009409104474
0.076125,0.009397387505
0.07614583333,0.009354460053
0.07616666667,0.009312056936
0.0761875,0.009279834107
0.07620833333,0.009272311814
0.07622916667,0.009239145555
0.07625,0.009211767465
0.07627083333,0.00917298533
0.07629166667,0.009164252318
0.0763125,0.009141498245
0.07633333333,0.009152278304
0.07635416667,0.009152635932
0.076375,0.009173983708
0.07639583333,0.009187415242
0.07641666667,0.009220936336
0.0764375,0.009253495373
0.07645833333,0.00927340053
0.07647916667,0.009319017641
0.0765,0.00934305042
0.07652083333,0.009402653202
0.07654166667,0.009439904243
0.0765625,0.009473173879
0.07658333333,0.009489217773
0.07660416667,0.009509769268
0.076625,0.009541492909
0.07664583333,0.009590785019
0.07666666667,0.009610260837
0.0766875,0.009647954255
0.07670833333,0.009650712833
0.07672916667,0.009666440077
0.07675,0.009655399248
0.07677083333,0.009654176421
0.07679166667,0.009642241523
0.0768125,0.009661156684
0.07683333333,0.009701616131
0.07685416667,0.009737626649
0.076875,0.009745784104
0.07689583333,0.009764838964
0.07691666667,0.009788592346
0.0769375,0.009847952984
0.07695833333,0.009890434332
0.07697916667,0.009960163385
0.077,0.009996506386
0.07702083333,0.01004034653
0.07704166667,0.01006502751
0.0770625,0.01008099504
0.07708333333,0.01008441206
0.07710416667,0.0100864796
0.077125,0.01005943306
0.07714583333,0.01002742164
0.07716666667,0.009997267276
0.0771875,0.009986755438
0.07720833333,0.01000842731
0.07722916667,0.01002465747
0.07725,0.01005402952
0.07727083333,0.01006759051
0.07729166667,0.01006549224
0.0773125,0.01006126869
0.07733333333,0.01003462635
0.07735416667,0.009990477003
0.077375,0.009961521253
0.07739583333,0.009916119277
0.07741666667,0.009888705797
0.0774375,0.009837266058
0.07745833333,0.009802480228
0.07747916667,0.009719518013
0.0775,0.009649996646
0.07752083333,0.009572690353
0.07754166667,0.009523968212
0.0775625,0.00946599897
0.07758333333,0.009444404393
0.07760416667,0.009407995269
0.077625,0.009400825948
0.07764583333,0.009356017224
0.07766666667,0.009320322424
0.0776875,0.009268380702
0.07770833333,0.009221017361
0.07772916667,0.009153951891
0.07775,0.009136912413
0.07777083333,0.009102828801
0.07779166667,0.009074939415
0.0778125,0.009007132612
0.07783333333,0.008940330707
0.07785416667,0.008854727261
0.077875,0.008774639107
0.07789583333,0.008708422072
0.07791666667,0.008649995551
0.0779375,0.008586542681
0.07795833333,0.008532260545
0.07797916667,0.008461109363
0.078,0.008407167159
0.07802083333,0.008365320042
0.07804166667,0.008336569183
0.0780625,0.008307434618
0.07808333333,0.008277545683
0.07810416667,0.008249895647
0.078125,0.008192259818
0.07814583333,0.00814777147
0.07816666667,0.00808618404
0.0781875,0.008035050705
0.07820833333,0.007948066108
0.07822916667,0.007866065018
0.07825,0.00777866831
0.07827083333,0.007704373915
0.07829166667,0.007622562349
0.0783125,0.007546863984
0.07833333333,0.007457082625
0.07835416667,0.007389515173
0.078375,0.007304964587
0.07839583333,0.007273256779
0.07841666667,0.00723246811
0.0784375,0.007196934894
0.07845833333,0.007120655384
0.07847916667,0.007054537535
0.0785,0.0069574425
0.07852083333,0.006882390473
0.07854166667,0.006807763129
0.0785625,0.006761073601
0.07858333333,0.006695444696
0.07860416667,0.006633612327
0.078625,0.00653490657
0.07864583333,0.006449304521
0.07866666667,0.006357492413
0.0786875,0.006288279779
0.07870833333,0.006193940528
0.07872916667,0.006121662445
0.07875,0.006055631675
0.07877083333,0.005985591561
0.07879166667,0.005910768639
0.0788125,0.005823515356
0.07883333333,0.005733980797
0.07885416667,0.005645559169
0.078875,0.005571140908
0.07889583333,0.005483778194
0.07891666667,0.005425835494
0.0789375,0.005330398213
0.07895833333,0.005247077905
0.07897916667,0.00515112374
0.079,0.005044221412
0.07902083333,0.004939292558
0.07904166667,0.00486184191
0.0790625,0.004760196432
0.07908333333,0.004663102794
0.07910416667,0.00453786971
0.079125,0.004456708673
0.07914583333,0.004348102491
0.07916666667,0.00428726431
0.0791875,0.004211827647
0.07920833333,0.004137463868
0.07922916667,0.004034813028
0.07925,0.003957098816
0.07927083333,0.003850723151
0.07929166667,0.003765204689
0.0793125,0.003653256223
0.07933333333,0.003574762726
0.07935416667,0.003428075463
0.079375,0.003298123134
0.07939583333,0.003170133103
0.07941666667,0.00306433253
0.0794375,0.002967700129
0.07945833333,0.002893512603
0.07947916667,0.002814127365
0.0795,0.002719631186
0.07952083333,0.002609988209
0.07954166667,0.002517575864
0.0795625,0.002436145907
0.07958333333,0.002372424118
0.07960416667,0.002312064636
0.079625,0.002235262655
0.07964583333,0.002142646816
0.07966666667,0.002033679979
0.0796875,0.001932324609
0.07970833333,0.001816349337
0.07972916667,0.001730446238
0.07975,0.001630610088
0.07977083333,0.00158019166
0.07979166667,0.001471838448
0.0798125,0.001396944048
0.07983333333,0.001260705991
0.07985416667,0.001149728429
0.079875,0.001004348043
0.07989583333,0.0009146986995
0.07991666667,0.000813456485
0.0799375,0.0007184334099
0.07995833333,0.0006302100373
0.07997916667,0.0005534001393
0.08,0.0004420656769
0.08002083333,0.0003375922097
0.08004166667,0.0002181039308
0.0800625,0.000138832751
0.08008333333,3.108887176e-05
0.08010416667,-4.399229147e-05
0.080125,-0.0001611120679
0.08014583333,-0.0002457141527
0.08016666667,-0.000373876188
0.0801875,-0.0004604075511
0.08020833333,-0.0005430562305
0.08022916667,-0.0006007855409
0.08025,-0.0006719717057
0.08027083333,-0.0007394376444
0.08029166667,-0.000799261732
0.0803125,-0.0008429567679
0.08033333333,-0.000887038419
0.08035416667,-0.0009181752685
0.080375,-0.0009592899587
0.08039583333,-0.0009597856551
0.08041666667,-0.0009716952336
0.0804375,-0.0009950530948
0.08045833333,-0.001027479186
0.08047916667,-0.001069707097
0.0805,-0.001093751751
0.08052083333,-0.001163432724
0.08054166667,-0.001203953871
0.0805625,-0.001259425073
0.08058333333,-0.001301415847
0.08060416667,-0.001353318221
0.080625,-0.001383828698
0.08064583333,-0.001446886105
0.08066666667,-0.001498824568
0.0806875,-0.001576757873
0.08070833333,-0.001658212277
0.08072916667,-0.001729801297
0.08075,-0.001784770633
0.08077083333,-0.001852994086
0.08079166667,-0.001884565689
0.0808125,-0.001991062192
0.08083333333,-0.002008775482
0.08085416667,-0.00207751547
0.080875,-0.002104262589
0.08089583333,-0.002156990115
0.08091666667,-0.002205487806
0.0809375,-0.002260553185
0.08095833333,-0.002278760076
0.08097916667,-0.002363674343
0.081,-0.0023950506
0.08102083333,-0.002457814058
0.08104166667,-0.002500513569
0.0810625,-0.002564293798
0.08108333333,-0.00260068546
0.08110416667,-0.002666006796
0.081125,-0.002692939481
0.08114583333,-0.00275178533
0.08116666667,-0.002799292561
0.0811875,-0.002852448961
0.08120833333,-0.002893668599
0.08122916667,-0.002948835259
0.08125,-0.003002219135
0.08127083333,-0.003049746156
0.08129166667,-0.003108737059
0.0813125,-0.003177034436
0.08133333333,-0.003239111742
0.08135416667,-0.003306720639
0.081375,-0.00336358021
0.08139583333,-0.003417529166
0.08141666667,-0.003483770881
0.0814375,-0.00355503289
0.08145833333,-0.00362141151
0.08147916667,-0.003678779351
0.0815,-0.003742691362
0.08152083333,-0.003797088517
0.08154166667,-0.003855722724
0.0815625,-0.003907803912
0.08158333333,-0.003992223181
0.08160416667,-0.004074540921
0.081625,-0.004149408545
0.08164583333,-0.0042182412
0.08166666667,-0.004278596491
0.0816875,-0.004332297947
0.08170833333,-0.004416483454
0.08172916667,-0.004490766674
0.08175,-0.004564538598
0.08177083333,-0.004616016056
0.08179166667,-0.004672328942
0.0818125,-0.004715566523
0.08183333333,-0.00477791857
0.08185416667,-0.004809896462
0.081875,-0.004879289307
0.08189583333,-0.004888919648
0.08191666667,-0.004925317597
0.0819375,-0.00495800795
0.08195833333,-0.005001845304
0.08197916667,-0.005029714201
0.082,-0.005082549062
0.08202083333,-0.005134026054
0.08204166667,-0.00517346384
0.0820625,-0.005230596289
0.08208333333,-0.005275152624
0.08210416667,-0.005330281332
0.082125,-0.005382079631
0.08214583333,-0.005393880885
0.08216666667,-0.005408639088
0.0821875,-0.005416985601
0.08220833333,-0.00543462066
0.08222916667,-0.005453687627
0.08225,-0.005441735964
0.08227083333,-0.005428271368
0.08229166667,-0.005425916519
0.0823125,-0.005442864727
0.08233333333,-0.005465362221
0.08235416667,-0.005493199453
0.082375,-0.005501066335
0.08239583333,-0.005509657785
0.08241666667,-0.005532655865
0.0824375,-0.005532636307
0.08245833333,-0.005541956518
0.08247916667,-0.005557637196
0.0825,-0.00555860484
0.08252083333,-0.005576373078
0.08254166667,-0.005546414759
0.0825625,-0.005532561801
0.08258333333,-0.005506289192
0.08260416667,-0.005488432944
0.082625,-0.005449004006
0.08264583333,-0.005419889465
0.08266666667,-0.005397233646
0.0826875,-0.005390362348
0.08270833333,-0.005367411301
0.08272916667,-0.005340348464
0.08275,-0.005299065728
0.08277083333,-0.005268970039
0.08279166667,-0.005249058362
0.0828125,-0.005240205675
0.08283333333,-0.005218499806
0.08285416667,-0.00522229122
0.082875,-0.005186066031
0.08289583333,-0.00516428845
0.08291666667,-0.005170647521
0.0829375,-0.005154255312
0.08295833333,-0.00515079312
0.08297916667,-0.005150952376
0.083,-0.005160547793
0.08302083333,-0.005179637577
0.08304166667,-0.005194695201
0.0830625,-0.005204857327
0.08308333333,-0.005211115815
0.08310416667,-0.005213108845
0.083125,-0.005236559082
0.08314583333,-0.005256963894
0.08316666667,-0.005275351461
0.0831875,-0.005284673069
0.08320833333,-0.005299903918
0.08322916667,-0.005301416852
0.08325,-0.005311920308
0.08327083333,-0.005323739722
0.08329166667,-0.005361346994
0.0833125,-0.005378084723
0.08333333333,-0.005429571494
0.08335416667,-0.005439883564
0.083375,-0.005483956542
0.08339583333,-0.005497187842
0.08341666667,-0.005531606264
0.0834375,-0.00554328924
0.08345833333,-0.005570907146
0.08347916667,-0.005607262719
0.0835,-0.005636028014
0.08352083333,-0.005653560627
0.08354166667,-0.005684710573
0.0835625,-0.005705095828
0.08358333333,-0.005742936861
0.08360416667,-0.005760082044
0.083625,-0.005786919501
0.08364583333,-0.005813168827
0.08366666667,-0.005819060374
0.0836875,-0.005845063366
0.08370833333,-0.005891946144
0.08372916667,-0.005937645677
0.08375,-0.005984449293
0.08377083333,-0.006022406276
0.08379166667,-0.006067565642
0.0838125,-0.006124000065
0.08383333333,-0.006159002893
0.08385416667,-0.00619444577
0.083875,-0.006222307216
0.08389583333,-0.006268115249
0.08391666667,-0.006292105187
0.0839375,-0.006305128802
0.08395833333,-0.006318744738
0.08397916667,-0.006325299386
0.084,-0.006340642925
0.08402083333,-0.006348627154
0.08404166667,-0.006356676575
0.0840625,-0.00637704879
0.08408333333,-0.006392703392
0.08410416667,-0.006435393821
0.084125,-0.006453512702
0.08414583333,-0.006517122965
0.08416666667,-0.006571043283
0.0841875,-0.006627728697
0.08420833333,-0.006671634968
0.08422916667,-0.006723648869
0.08425,-0.006767317187
0.08427083333,-0.006796614267
0.08429166667,-0.006841339637
0.0843125,-0.006893184036
0.08433333333,-0.006956520956
0.08435416667,-0.007010515314
0.084375,-0.007045498118
0.08439583333,-0.007046136074
0.08441666667,-0.007057706825
0.0844375,-0.007063114084
0.08445833333,-0.007054638583
0.08447916667,-0.007067281753
0.0845,-0.007064322941
0.08452083333,-0.007072792854
0.08454166667,-0.007062075194
0.0845625,-0.00705178827
0.08458333333,-0.007051486988
0.08460416667,-0.007040360942
0.084625,-0.007022276055
0.08464583333,-0.006997648161
0.08466666667,-0.006983615924
0.0846875,-0.006949048955
0.08470833333,-0.006921746302
0.08472916667,-0.006873862818
0.08475,-0.006842090283
0.08477083333,-0.006806003395
0.08479166667,-0.00676145684
0.0848125,-0.006716165692
0.08483333333,-0.006696260069
0.08485416667,-0.00666406611
0.084875,-0.006641187705
0.08489583333,-0.006607105955
0.08491666667,-0.006580627989
0.0849375,-0.006573766004
0.08495833333,-0.006557608489
0.08497916667,-0.006537131034
0.085,-0.006524742115
0.08502083333,-0.006487856153
0.08504166667,-0.006457712036
0.0850625,-0.006415225565
0.08508333333,-0.006384819746
0.08510416667,-0.006329616066
0.085125,-0.006314601749
0.08514583333,-0.006255284883
0.08516666667,-0.006230072584
0.0851875,-0.006179595366
0.08520833333,-0.006125373766
0.08522916667,-0.006098965649
0.08525,-0.006035048515
0.08527083333,-0.005997253116
0.08529166667,-0.005942743272
0.0853125,-0.005899215583
0.08533333333,-0.005871247035
0.08535416667,-0.005834437907
0.085375,-0.005805874243
0.08539583333,-0.005774934776
0.08541666667,-0.005747977644
0.0854375,-0.005741745699
0.08545833333,-0.005709400866
0.08547916667,-0.00569257047
0.0855,-0.005673003849
0.08552083333,-0.005640637595
0.08554166667,-0.005607929081
0.0855625,-0.005588534288
0.08558333333,-0.005555981304
0.08560416667,-0.005549503956
0.085625,-0.00551708648
0.08564583333,-0.005523177795
0.08566666667,-0.005492704455
0.0856875,-0.005478738341
0.08570833333,-0.005415918771
0.08572916667,-0.005393999629
0.08575,-0.005341840442
0.08577083333,-0.005340142641
0.08579166667,-0.005332916509
0.0858125,-0.005308614112
0.08583333333,-0.005271501373
0.08585416667,-0.00523932511
0.085875,-0.005175299011
0.08589583333,-0.005163209978
0.08591666667,-0.005122105591
0.0859375,-0.00512373168
0.08595833333,-0.005115500651
0.08597916667,-0.005113008432
0.086,-0.005107289646
0.08602083333,-0.005118221976
0.08604166667,-0.005139628425
0.0860625,-0.005152720492
0.08608333333,-0.005178544205
0.08610416667,-0.005189146847
0.086125,-0.005212579854
0.08614583333,-0.005202622619
0.08616666667,-0.005227618851
0.0861875,-0.005236066878
0.08620833333,-0.005238157231
0.08622916667,-0.005261956248
0.08625,-0.005269370507
0.08627083333,-0.005287378095
0.08629166667,-0.00530517986
0.0863125,-0.005298189819
0.08633333333,-0.005329165608
0.08635416667,-0.005323601421
0.086375,-0.005362697411
0.08639583333,-0.005370620638
0.08641666667,-0.00540780602
0.0864375,-0.00542180473
0.08645833333,-0.005445089191
0.08647916667,-0.00546023529
0.0865,-0.005512443837
0.08652083333,-0.005525453947
0.08654166667,-0.005563142244
0.0865625,-0.00557455048
0.08658333333,-0.005606472027
0.08660416667,-0.005611453205
0.086625,-0.005634836853
0.08664583333,-0.005658308044
0.08666666667,-0.005687796976
0.0866875,-0.005737623665
0.08670833333,-0.00575789297
0.08672916667,-0.005789805669
0.08675,-0.005817098543
0.08677083333,-0.005847032182
0.08679166667,-0.005870765075
0.0868125,-0.005877790041
0.08683333333,-0.005892160814
0.08685416667,-0.005898294505
0.086875,-0.005910634529
0.08689583333,-0.005938162562
0.08691666667,-0.005927642342
0.0869375,-0.005978121888
0.08695833333,-0.005983617157
0.08697916667,-0.006029163953
0.087,-0.006053202786
0.08702083333,-0.006091843359
0.08704166667,-0.006097393576
0.0870625,-0.006106237881
0.08708333333,-0.006122015417
0.08710416667,-0.006173943635
0.087125,-0.006186969578
0.08714583333,-0.006225314923
0.08716666667,-0.006217430346
0.0871875,-0.006246361881
0.08720833333,-0.006261498202
0.08722916667,-0.00629186118
0.08725,-0.006290256511
0.08727083333,-0.006304967217
0.08729166667,-0.006311665289
0.0873125,-0.006319277454
0.08733333333,-0.006326590199
0.08735416667,-0.006359915715
0.087375,-0.006365109701
0.08739583333,-0.006385214627
0.08741666667,-0.006382999942
0.0874375,-0.006403695326
0.08745833333,-0.006381034851
0.08747916667,-0.006371768191
0.0875,-0.006374075543
0.08752083333,-0.006377390586
0.08754166667,-0.006386531983
0.0875625,-0.006373921875
0.08758333333,-0.006361363456
0.08760416667,-0.006332174409
0.087625,-0.006323955022
0.08764583333,-0.006289651152
0.08766666667,-0.006266796961
0.0876875,-0.00621570088
0.08770833333,-0.006192397326
0.08772916667,-0.006176267751
0.08775,-0.006180701312
0.08777083333,-0.006159895565
0.08779166667,-0.006157291122
0.0878125,-0.006109350827
0.08783333333,-0.006077504717
0.08785416667,-0.006012667902
0.087875,-0.005996715277
0.08789583333,-0.00596226519
0.08791666667,-0.00593415089
0.0879375,-0.005902010947
0.08795833333,-0.005874588154
0.08797916667,-0.005832134746
0.088,-0.00581308594
0.08802083333,-0.005760611966
0.08804166667,-0.005736392457
0.0880625,-0.005683528259
0.08808333333,-0.005651667248
0.08810416667,-0.005583727267
0.088125,-0.005532204174
0.08814583333,-0.005470239092
0.08816666667,-0.005415863357
0.0881875,-0.005353307817
0.08820833333,-0.005297727883
0.08822916667,-0.005234497599
