time,data
0,5.34615765e-08
2.083333333e-05,5.757490129e-08
4.166666667e-05,6.150400367e-08
6.25e-05,6.521385387e-08
8.333333333e-05,6.893788651e-08
0.0001041666667,7.280025471e-08
0.000125,7.686013959e-08
0.0001458333333,8.102641402e-08
0.0001666666667,8.507670657e-08
0.0001875,8.897754356e-08
0.0002083333333,9.269655976e-08
0.0002291666667,9.647943955e-08
0.00025,1.004213956e-07
0.0002708333333,1.045750295e-07
0.0002916666667,1.088084218e-07
0.0003125,1.128616063e-07
0.0003333333333,1.166604449e-07
0.0003541666667,1.20102797e-07
0.000375,1.233878208e-07
0.0003958333333,1.265498781e-07
0.0004166666667,1.296160121e-07
0.0004375,1.324463454e-07
0.0004583333333,1.347754051e-07
0.0004791666667,1.365398248e-07
0.0005,1.37630181e-07
0.0005208333333,1.382832266e-07
0.0005416666667,1.385785993e-07
0.0005625,1.386507904e-07
0.0005833333333,1.384274384e-07
0.0006041666667,1.377040206e-07
0.000625,1.363885929e-07
0.0006458333333,1.343272515e-07
0.0006666666667,1.317270915e-07
0.0006875,1.286553299e-07
0.0007083333333,1.25293198e-07
0.0007291666667,1.215466199e-07
0.00075,1.171497175e-07
0.0007708333333,1.119096922e-07
0.0007916666667,1.05558513e-07
0.0008125,9.835764558e-08
0.0008333333333,9.044561011e-08
0.0008541666667,8.220074221e-08
0.000875,7.361767018e-08
0.0008958333333,6.446297363e-08
0.0009166666667,5.453016172e-08
0.0009375,4.356163075e-08
0.0009583333333,3.193230924e-08
0.0009791666667,1.994844823e-08
0.001,8.080480285e-09
0.001020833333,-3.675846738e-09
0.001041666667,-1.573178565e-08
0.0010625,-2.846176628e-08
0.001083333333,-4.223640104e-08
0.001104166667,-5.666268876e-08
0.001125,-7.136092961e-08
0.001145833333,-8.580040856e-08
0.001166666667,-1.000634171e-07
0.0011875,-1.145876922e-07
0.001208333333,-1.298273844e-07
0.001229166667,-1.459809198e-07
0.00125,-1.624767378e-07
0.001270833333,-1.787054202e-07
0.001291666667,-1.940035759e-07
0.0013125,-2.084751571e-07
0.001333333333,-2.225935134e-07
0.001354166667,-2.368424106e-07
0.001375,-2.514493076e-07
0.001395833333,-2.657787945e-07
0.001416666667,-2.793639453e-07
0.0014375,-2.916179085e-07
0.001458333333,-3.02874696e-07
0.001479166667,-3.136999851e-07
0.0015,-3.246308609e-07
0.001520833333,-3.358508707e-07
0.001541666667,-3.46700574e-07
0.0015625,-3.566339046e-07
0.001583333333,-3.650540918e-07
0.001604166667,-3.721229405e-07
0.001625,-3.782832323e-07
0.001645833333,-3.838799785e-07
0.001666666667,-3.890347671e-07
0.0016875,-3.931011179e-07
0.001708333333,-3.956459125e-07
0.001729166667,-3.961051505e-07
0.00175,-3.947668574e-07
0.001770833333,-3.92047582e-07
0.001791666667,-3.885444642e-07
0.0018125,-3.845471497e-07
0.001833333333,-3.797265435e-07
0.001854166667,-3.737689553e-07
0.001875,-3.660945538e-07
0.001895833333,-3.568202374e-07
0.001916666667,-3.462572806e-07
0.0019375,-3.348877158e-07
0.001958333333,-3.231274661e-07
0.001979166667,-3.105212159e-07
0.002,-2.966952763e-07
0.002020833333,-2.807266242e-07
0.002041666667,-2.625740763e-07
0.0020625,-2.425379932e-07
0.002083333333,-2.213915309e-07
0.002104166667,-1.998822228e-07
0.002125,-1.779048233e-07
0.002145833333,-1.550568385e-07
0.002166666667,-1.305312622e-07
0.0021875,-1.041804936e-07
0.002208333333,-7.66556596e-08
0.002229166667,-4.894213745e-08
0.00225,-2.203401017e-08
0.002270833333,4.285082067e-09
0.002291666667,3.075658483e-08
0.0023125,5.862855801e-08
0.002333333333,8.821969288e-08
0.002354166667,1.190068133e-07
0.002375,1.497295301e-07
0.002395833333,1.795103799e-07
0.002416666667,2.084969708e-07
0.0024375,2.3768186e-07
0.002458333333,2.682214983e-07
0.002479166667,3.002399467e-07
0.0025,3.327328102e-07
0.002520833333,3.641256967e-07
0.002541666667,3.932124173e-07
0.0025625,4.202814523e-07
0.002583333333,4.462409322e-07
0.002604166667,4.724494715e-07
0.002625,4.989249192e-07
0.002645833333,5.248309094e-07
0.002666666667,5.48744822e-07
0.0026875,5.698791483e-07
0.002708333333,5.88755654e-07
0.002729166667,6.066161973e-07
0.00275,6.246683029e-07
0.002770833333,6.430822168e-07
0.002791666667,6.607758678e-07
0.0028125,6.764885825e-07
0.002833333333,6.89161709e-07
0.002854166667,6.991755868e-07
0.002875,7.072646326e-07
0.002895833333,7.143998459e-07
0.002916666667,7.205067618e-07
0.0029375,7.247593317e-07
0.002958333333,7.259761219e-07
0.002979166667,7.234501709e-07
0.003,7.174498364e-07
0.003020833333,7.089825544e-07
0.003041666667,6.991077726e-07
0.0030625,6.884225172e-07
0.003083333333,6.764624914e-07
0.003104166667,6.625415949e-07
0.003125,6.457031532e-07
0.003145833333,6.260918326e-07
0.003166666667,6.041719303e-07
0.0031875,5.810912853e-07
0.003208333333,5.572949817e-07
0.003229166667,5.324756671e-07
0.00325,5.055437668e-07
0.003270833333,4.751895517e-07
0.003291666667,4.410501333e-07
0.0033125,4.037561894e-07
0.003333333333,3.646986215e-07
0.003354166667,3.252677914e-07
0.003375,2.853364833e-07
0.003395833333,2.443276514e-07
0.003416666667,2.005905202e-07
0.0034375,1.541007038e-07
0.003458333333,1.056475156e-07
0.003479166667,5.728344377e-08
0.0035,1.054596854e-08
0.003520833333,-3.470187337e-08
0.003541666667,-7.988147388e-08
0.0035625,-1.270673522e-07
0.003583333333,-1.770158065e-07
0.003604166667,-2.286548124e-07
0.003625,-2.800525181e-07
0.003645833333,-3.293782243e-07
0.003666666667,-3.771550325e-07
0.0036875,-4.24787828e-07
0.003708333333,-4.74549779e-07
0.003729166667,-5.26414567e-07
0.00375,-5.789423199e-07
0.003770833333,-6.291933801e-07
0.003791666667,-6.753841149e-07
0.0038125,-7.177712291e-07
0.003833333333,-7.58125168e-07
0.003854166667,-7.985974548e-07
0.003875,-8.393424764e-07
0.003895833333,-8.788561559e-07
0.003916666667,-9.148857885e-07
0.0039375,-9.459492389e-07
0.003958333333,-9.732907529e-07
0.003979166667,-9.985834595e-07
0.004,-1.024410722e-06
0.004020833333,-1.050414312e-06
0.004041666667,-1.075373802e-06
0.0040625,-1.096669735e-06
0.004083333333,-1.112998575e-06
0.004104166667,-1.1248286e-06
0.004125,-1.133532464e-06
0.004145833333,-1.140744416e-06
0.004166666667,-1.146225827e-06
0.0041875,-1.148635761e-06
0.004208333333,-1.146057116e-06
0.004229166667,-1.137234676e-06
0.00425,-1.123083734e-06
0.004270833333,-1.104778676e-06
0.004291666667,-1.084826067e-06
0.0043125,-1.063253762e-06
0.004333333333,-1.040153279e-06
0.004354166667,-1.013522137e-06
0.004375,-9.825453162e-07
0.004395833333,-9.471715998e-07
0.004416666667,-9.083819918e-07
0.0044375,-8.682234238e-07
0.004458333333,-8.269965974e-07
0.004479166667,-7.845059713e-07
0.0045,-7.386339576e-07
0.004520833333,-6.873816574e-07
0.004541666667,-6.306134992e-07
0.0045625,-5.687638236e-07
0.004583333333,-5.051987273e-07
0.004604166667,-4.407311849e-07
0.004625,-3.764641008e-07
0.004645833333,-3.100866763e-07
0.004666666667,-2.400127528e-07
0.0046875,-1.657486308e-07
0.004708333333,-8.878497937e-08
0.004729166667,-1.273870431e-08
0.00475,6.063493174e-08
0.004770833333,1.310022526e-07
0.004791666667,2.01243509e-07
0.0048125,2.74416351e-07
0.004833333333,3.513139575e-07
0.004854166667,4.309390818e-07
0.004875,5.089316346e-07
0.004895833333,5.840958579e-07
0.004916666667,6.55627332e-07
0.0049375,7.274517202e-07
0.004958333333,8.017806294e-07
0.004979166667,8.793607549e-07
0.005,9.575535387e-07
0.005020833333,1.031545594e-06
0.005041666667,1.099258611e-06
0.0050625,1.160327656e-06
0.005083333333,1.218381385e-06
0.005104166667,1.276233206e-06
0.005125,1.334124249e-06
0.005145833333,1.390316243e-06
0.005166666667,1.44011176e-06
0.0051875,1.483033884e-06
0.005208333333,1.518947784e-06
0.005229166667,1.552566914e-06
0.00525,1.585961286e-06
0.005270833333,1.620008334e-06
0.005291666667,1.652112019e-06
0.0053125,1.678399713e-06
0.005333333333,1.697449534e-06
0.005354166667,1.708993523e-06
0.005375,1.71623492e-06
0.005395833333,1.720659043e-06
0.005416666667,1.722530442e-06
0.0054375,1.720040586e-06
0.005458333333,1.70944827e-06
0.005479166667,1.690621048e-06
0.0055,1.66248492e-06
0.005520833333,1.629496296e-06
0.005541666667,1.592663352e-06
0.0055625,1.554442747e-06
0.005583333333,1.513557436e-06
0.005604166667,1.46772652e-06
0.005625,1.416148166e-06
0.005645833333,1.357416068e-06
0.005666666667,1.294565777e-06
0.0056875,1.228872634e-06
0.005708333333,1.162140393e-06
0.005729166667,1.093869173e-06
0.00575,1.020382683e-06
0.005770833333,9.40602547e-07
0.005791666667,8.514199976e-07
0.0058125,7.566816862e-07
0.005833333333,6.578169405e-07
0.005854166667,5.591281251e-07
0.005875,4.60279324e-07
0.005895833333,3.590836855e-07
0.005916666667,2.534435168e-07
0.0059375,1.412835644e-07
0.005958333333,2.650297937e-08
0.005979166667,-8.783695193e-08
0.006,-1.973558312e-07
0.006020833333,-3.023081945e-07
0.006041666667,-4.069488853e-07
0.0060625,-5.140929602e-07
0.006083333333,-6.278167461e-07
0.006104166667,-7.43180351e-07
0.006125,-8.580599342e-07
0.006145833333,-9.668677876e-07
0.006166666667,-1.071283918e-06
0.0061875,-1.175014631e-06
0.006208333333,-1.281539426e-06
0.006229166667,-1.393006528e-06
0.00625,-1.503834596e-06
0.006270833333,-1.609660785e-06
0.006291666667,-1.705259479e-06
0.0063125,-1.791501745e-06
0.006333333333,-1.873145379e-06
0.006354166667,-1.953058018e-06
0.006375,-2.03415243e-06
0.006395833333,-2.110443347e-06
0.006416666667,-2.179655894e-06
0.0064375,-2.23672464e-06
0.006458333333,-2.285326445e-06
0.006479166667,-2.329221388e-06
0.0065,-2.372778226e-06
0.006520833333,-2.417374844e-06
0.006541666667,-2.457863957e-06
0.0065625,-2.491364285e-06
0.006583333333,-2.512965921e-06
0.006604166667,-2.524884621e-06
0.006625,-2.530131724e-06
0.006645833333,-2.530738811e-06
0.006666666667,-2.528993946e-06
0.0066875,-2.518739166e-06
0.006708333333,-2.4995893e-06
0.006729166667,-2.465985062e-06
0.00675,-2.421640829e-06
0.006770833333,-2.368781452e-06
0.006791666667,-2.311393473e-06
0.0068125,-2.252264039e-06
0.006833333333,-2.188357257e-06
0.006854166667,-2.119003511e-06
0.006875,-2.039729907e-06
0.006895833333,-1.951995955e-06
0.006916666667,-1.85774843e-06
0.0069375,-1.759779934e-06
0.006958333333,-1.66167888e-06
0.006979166667,-1.559468615e-06
0.007,-1.452802735e-06
0.007020833333,-1.334111062e-06
0.007041666667,-1.205464514e-06
0.0070625,-1.066894924e-06
0.007083333333,-9.245262049e-07
0.007104166667,-7.825280477e-07
0.007125,-6.397795005e-07
0.007145833333,-4.955675195e-07
0.007166666667,-3.43026386e-07
0.0071875,-1.836452839e-07
0.007208333333,-1.947205241e-08
0.007229166667,1.430816212e-07
0.00725,2.976567828e-07
0.007270833333,4.475573121e-07
0.007291666667,5.938849199e-07
0.0073125,7.472365837e-07
0.007333333333,9.059608033e-07
0.007354166667,1.069664222e-06
0.007375,1.230055659e-06
0.007395833333,1.382251867e-06
0.007416666667,1.528445978e-06
0.0074375,1.671866471e-06
0.007458333333,1.82132851e-06
0.007479166667,1.975108262e-06
0.0075,2.129606401e-06
0.007520833333,2.275789711e-06
0.007541666667,2.407040483e-06
0.0075625,2.526654271e-06
0.007583333333,2.636906174e-06
0.007604166667,2.748322686e-06
0.007625,2.857443633e-06
0.007645833333,2.963409315e-06
0.007666666667,3.05657386e-06
0.0076875,3.134326107e-06
0.007708333333,3.199832463e-06
0.007729166667,3.257645403e-06
0.00775,3.316883976e-06
0.007770833333,3.374943162e-06
0.007791666667,3.429789558e-06
0.0078125,3.473098104e-06
0.007833333333,3.500571438e-06
0.007854166667,3.515433491e-06
0.007875,3.518630365e-06
0.007895833333,3.519117172e-06
0.007916666667,3.512003332e-06
0.0079375,3.497917533e-06
0.007958333333,3.467975148e-06
0.007979166667,3.420988833e-06
0.008,3.358408321e-06
0.008020833333,3.283482556e-06
0.008041666667,3.204421773e-06
0.0080625,3.120154815e-06
0.008083333333,3.032539553e-06
0.008104166667,2.935351176e-06
0.008125,2.826123364e-06
0.008145833333,2.705890665e-06
0.008166666667,2.574797463e-06
0.0081875,2.442069672e-06
0.008208333333,2.304622967e-06
0.008229166667,2.166661943e-06
0.00825,2.018480018e-06
0.008270833333,1.858053793e-06
0.008291666667,1.682616926e-06
0.0083125,1.494174285e-06
0.008333333333,1.302155738e-06
0.008354166667,1.107722255e-06
0.008375,9.158372336e-07
0.008395833333,7.190899964e-07
0.008416666667,5.138950314e-07
0.0084375,2.994359249e-07
0.008458333333,7.732423057e-08
0.008479166667,-1.394424913e-07
0.0085,-3.505542736e-07
0.008520833333,-5.500215252e-07
0.008541666667,-7.498180139e-07
0.0085625,-9.540499377e-07
0.008583333333,-1.167675691e-06
0.008604166667,-1.386843792e-06
0.008625,-1.600602218e-06
0.008645833333,-1.806422006e-06
0.008666666667,-2.000844916e-06
0.0086875,-2.19497656e-06
0.008708333333,-2.393712748e-06
0.008729166667,-2.598912488e-06
0.00875,-2.805387567e-06
0.008770833333,-2.99834187e-06
0.008791666667,-3.176412974e-06
0.0088125,-3.333859922e-06
0.008833333333,-3.484899253e-06
0.008854166667,-3.631804702e-06
0.008875,-3.779193094e-06
0.008895833333,-3.920252766e-06
0.008916666667,-4.044370598e-06
0.0089375,-4.150836048e-06
0.008958333333,-4.237975645e-06
0.008979166667,-4.319252184e-06
0.009,-4.398521469e-06
0.009020833333,-4.478193205e-06
0.009041666667,-4.553116469e-06
0.0090625,-4.610965789e-06
0.009083333333,-4.652501957e-06
0.009104166667,-4.672274372e-06
0.009125,-4.68340977e-06
0.009145833333,-4.685019576e-06
0.009166666667,-4.681424343e-06
0.0091875,-4.665691904e-06
0.009208333333,-4.630053354e-06
0.009229166667,-4.573914794e-06
0.00925,-4.494801487e-06
0.009270833333,-4.404097581e-06
0.009291666667,-4.304239155e-06
0.0093125,-4.200775948e-06
0.009333333333,-4.091396931e-06
0.009354166667,-3.968670171e-06
0.009375,-3.833416486e-06
0.009395833333,-3.679046586e-06
0.009416666667,-3.517453933e-06
0.0094375,-3.347297024e-06
0.009458333333,-3.177387498e-06
0.009479166667,-3.00220313e-06
0.0095,-2.815836751e-06
0.009520833333,-2.613915512e-06
0.009541666667,-2.39012752e-06
0.0095625,-2.154325784e-06
0.009583333333,-1.909549383e-06
0.009604166667,-1.666312755e-06
0.009625,-1.423691629e-06
0.009645833333,-1.174833528e-06
0.009666666667,-9.172641171e-07
0.0096875,-6.428880397e-07
0.009708333333,-3.65596037e-07
0.009729166667,-8.815246133e-08
0.00975,1.747774832e-07
0.009770833333,4.284309796e-07
0.009791666667,6.795683589e-07
0.0098125,9.374870729e-07
0.009833333333,1.20947027e-06
0.009854166667,1.484532845e-06
0.009875,1.757240739e-06
0.009895833333,2.014620804e-06
0.009916666667,2.261136387e-06
0.0099375,2.506021474e-06
0.009958333333,2.756083632e-06
0.009979166667,3.018617235e-06
0.01,3.116764447e-06
0.01002083333,4.123014605e-06
0.01004166667,4.568391432e-06
0.0100625,4.58261502e-06
0.01008333333,4.413531769e-06
0.01010416667,4.480805728e-06
0.010125,4.587794592e-06
0.01014583333,4.975579031e-06
0.01016666667,5.07820323e-06
0.0101875,5.087009413e-06
0.01020833333,4.997285487e-06
0.01022916667,5.140653229e-06
0.01025,5.288525244e-06
0.01027083333,5.637209597e-06
0.01029166667,5.88373905e-06
0.0103125,6.07728407e-06
0.01033333333,6.116600616e-06
0.01035416667,6.18440572e-06
0.010375,6.075189958e-06
0.01039583333,6.052397566e-06
0.01041666667,5.677823083e-06
0.0104375,5.199452971e-06
0.01045833333,4.677526704e-06
0.01047916667,4.546973287e-06
0.0105,4.594890925e-06
0.01052083333,4.873365924e-06
0.01054166667,4.893994173e-06
0.0105625,4.752468612e-06
0.01058333333,4.477523362e-06
0.01060416667,4.249689027e-06
0.010625,4.008426913e-06
0.01064583333,4.08770984e-06
0.01066666667,3.970226317e-06
0.0106875,3.815494438e-06
0.01070833333,3.179727628e-06
0.01072916667,2.76595938e-06
0.01075,2.41985208e-06
0.01077083333,2.470399068e-06
0.01079166667,2.360206281e-06
0.0108125,2.245235464e-06
0.01083333333,1.944249107e-06
0.01085416667,1.759352585e-06
0.010875,1.526925985e-06
0.01089583333,1.529317956e-06
0.01091666667,1.118370278e-06
0.0109375,8.321259202e-07
0.01095833333,1.491160333e-07
0.01097916667,-1.306915181e-07
0.011,-6.909705235e-07
0.01102083333,-9.109488701e-07
0.01104166667,-1.070267786e-06
0.0110625,-1.33432502e-06
0.01108333333,-1.848461238e-06
0.01110416667,-2.112931952e-06
0.011125,-2.650551096e-06
0.01114583333,-2.931605877e-06
0.01116666667,-3.363732276e-06
0.0111875,-3.415502761e-06
0.01120833333,-3.881973953e-06
0.01122916667,-4.06604704e-06
0.01125,-4.379621714e-06
0.01127083333,-4.686527973e-06
0.01129166667,-5.316331226e-06
0.0113125,-5.534553111e-06
0.01133333333,-6.016923635e-06
0.01135416667,-5.980927199e-06
0.011375,-6.257615951e-06
0.01139583333,-6.273726285e-06
0.01141666667,-6.620680324e-06
0.0114375,-6.883124115e-06
0.01145833333,-7.342126082e-06
0.01147916667,-7.068475952e-06
0.0115,-7.019781606e-06
0.01152083333,-6.653941e-06
0.01154166667,-6.706661225e-06
0.0115625,-6.879992725e-06
0.01158333333,-7.208936495e-06
0.01160416667,-7.196293154e-06
0.011625,-7.172597179e-06
0.01164583333,-6.889698852e-06
0.01166666667,-7.050683053e-06
0.0116875,-7.176035979e-06
0.01170833333,-7.789811207e-06
0.01172916667,-7.589799225e-06
0.01175,-7.276246379e-06
0.01177083333,-6.596598269e-06
0.01179166667,-6.300417681e-06
0.0118125,-6.206937542e-06
0.01183333333,-6.622068668e-06
0.01185416667,-6.468268566e-06
0.011875,-6.280376056e-06
0.01189583333,-5.854314622e-06
0.01191666667,-5.520696504e-06
0.0119375,-5.220136245e-06
0.01195833333,-5.397351288e-06
0.01197916667,-4.81322877e-06
0.012,-4.747507774e-06
0.01202083333,-3.759816536e-06
0.01204166667,-3.581613782e-06
0.0120625,-3.155625564e-06
0.01208333333,-3.445523816e-06
0.01210416667,-3.174519861e-06
0.012125,-2.728542313e-06
0.01214583333,-2.053493745e-06
0.01216666667,-2.076943474e-06
0.0121875,-1.735907404e-06
0.01220833333,-1.962020406e-06
0.01222916667,-1.439403832e-06
0.01225,-1.155680366e-06
0.01227083333,-1.625043922e-07
0.01229166667,6.970507229e-07
0.0123125,1.415992415e-06
0.01233333333,8.545243304e-07
0.01235416667,1.211487415e-06
0.012375,1.147493322e-06
0.01239583333,1.557254564e-06
0.01241666667,1.773306508e-06
0.0124375,2.644594588e-06
0.01245833333,2.698514663e-06
0.01247916667,2.885634785e-06
0.0125,2.909659088e-06
0.01252083333,3.228057267e-06
0.01254166667,3.343997378e-06
0.0125625,3.875016318e-06
0.01258333333,3.78958066e-06
0.01260416667,4.188346338e-06
0.012625,4.136088137e-06
0.01264583333,4.355019882e-06
0.01266666667,3.746605898e-06
0.0126875,3.958479738e-06
0.01270833333,3.631879508e-06
0.01272916667,3.783603916e-06
0.01275,3.721931762e-06
0.01277083333,4.821396033e-06
0.01279166667,4.845859621e-06
0.0128125,5.294613857e-06
0.01283333333,5.034684364e-06
0.01285416667,4.967360837e-06
0.012875,4.720909601e-06
0.01289583333,4.851045105e-06
0.01291666667,4.031494882e-06
0.0129375,3.84971554e-06
0.01295833333,3.338087026e-06
0.01297916667,3.09303141e-06
0.013,2.346999736e-06
0.01302083333,2.883093657e-06
0.01304166667,2.883951311e-06
0.0130625,3.542733111e-06
0.01308333333,2.865188435e-06
0.01310416667,2.393828936e-06
0.013125,1.864654678e-06
0.01314583333,1.551022706e-06
0.01316666667,6.670720722e-07
0.0131875,4.978378456e-07
0.01320833333,-1.092985258e-07
0.01322916667,-9.866971595e-08
0.01325,-1.921898729e-07
0.01327083333,-4.923781489e-07
0.01329166667,-9.845578006e-07
0.0133125,-1.223313575e-07
0.01333333333,3.013847163e-07
0.01335416667,5.763454283e-07
0.013375,-2.321985448e-08
0.01339583333,8.849769983e-08
0.01341666667,-1.265054379e-06
0.0134375,-2.138903483e-06
0.01345833333,-3.752804332e-06
0.01347916667,-3.829203251e-06
0.0135,-4.490054835e-06
0.01352083333,-3.89705292e-06
0.01354166667,-3.720868108e-06
0.0135625,-3.020272743e-06
0.01358333333,-3.24762118e-06
0.01360416667,-2.712651849e-06
0.013625,-2.970817832e-06
0.01364583333,-2.840779871e-06
0.01366666667,-3.219663313e-06
0.0136875,-2.804200221e-06
0.01370833333,-3.400417199e-06
0.01372916667,-2.652863259e-06
0.01375,-3.625918453e-06
0.01377083333,-4.955388704e-06
0.01379166667,-7.032400845e-06
0.0138125,-7.549799193e-06
0.01383333333,-7.460659617e-06
0.01385416667,-6.530350674e-06
0.013875,-6.371007657e-06
0.01389583333,-5.510950814e-06
0.01391666667,-5.640312338e-06
0.0139375,-6.655960533e-06
0.01395833333,-7.755623301e-06
0.01397916667,-8.220648851e-06
0.014,-8.976865502e-06
0.01402083333,-7.729358003e-06
0.01404166667,-8.050268661e-06
0.0140625,-7.434216059e-06
0.01408333333,-8.152688679e-06
0.01410416667,-8.019866073e-06
0.014125,-8.770041859e-06
0.01414583333,-8.969991541e-06
0.01416666667,-9.5453006e-06
0.0141875,-1.024524136e-05
0.01420833333,-9.821830645e-06
0.01422916667,-8.616689229e-06
0.01425,-7.742133675e-06
0.01427083333,-6.270615813e-06
0.01429166667,-6.42875375e-06
0.0143125,-7.019928034e-06
0.01433333333,-7.994227417e-06
0.01435416667,-6.62267712e-06
0.014375,-4.934316621e-06
0.01439583333,-3.276380312e-06
0.01441666667,-3.706835059e-06
0.0144375,-3.596423994e-06
0.01445833333,-4.60339561e-06
0.01447916667,-4.68725375e-06
0.0145,-4.682791314e-06
0.01452083333,-1.859758186e-06
0.01454166667,7.136834483e-07
0.0145625,4.783400527e-06
0.01458333333,8.467170119e-06
0.01460416667,1.152126879e-05
0.014625,1.246293414e-05
0.01464583333,1.38929463e-05
0.01466666667,1.279231583e-05
0.0146875,1.225108645e-05
0.01470833333,1.099149631e-05
0.01472916667,1.049119692e-05
0.01475,9.58113651e-06
0.01477083333,1.068105939e-05
0.01479166667,1.156207327e-05
0.0148125,1.112383507e-05
0.01483333333,1.073447311e-05
0.01485416667,1.295354468e-05
0.014875,1.592641456e-05
0.01489583333,1.843080281e-05
0.01491666667,2.015550126e-05
0.0149375,2.073592623e-05
0.01495833333,1.736660306e-05
0.01497916667,1.294083268e-05
0.015,5.807840353e-06
0.01502083333,1.845965016e-06
0.01504166667,-7.188978088e-07
0.0150625,8.322749636e-07
0.01508333333,4.502532647e-06
0.01510416667,9.996893823e-06
0.015125,1.320716456e-05
0.01514583333,1.478097693e-05
0.01516666667,1.444284862e-05
0.0151875,1.482893276e-05
0.01520833333,1.598232666e-05
0.01522916667,1.859609984e-05
0.01525,1.832438829e-05
0.01527083333,1.933579551e-05
0.01529166667,1.791063551e-05
0.0153125,1.678638728e-05
0.01533333333,1.616562986e-05
0.01535416667,1.826104926e-05
0.015375,1.848523061e-05
0.01539583333,2.271158337e-05
0.01541666667,2.567007687e-05
0.0154375,2.848326039e-05
0.01545833333,3.07421833e-05
0.01547916667,3.208267663e-05
0.0155,3.177646067e-05
0.01552083333,2.886752372e-05
0.01554166667,2.621847671e-05
0.0155625,2.253425919e-05
0.01558333333,2.063356442e-05
0.01560416667,2.343723099e-05
0.015625,2.485846562e-05
0.01564583333,2.77716299e-05
0.01566666667,2.678760575e-05
0.0156875,2.491791201e-05
0.01570833333,2.357669291e-05
0.01572916667,2.326562753e-05
0.01575,2.345117355e-05
0.01577083333,2.303266047e-05
0.01579166667,1.99397964e-05
0.0158125,1.755079211e-05
0.01583333333,1.585307837e-05
0.01585416667,1.500495364e-05
0.015875,1.580841308e-05
0.01589583333,1.783308471e-05
0.01591666667,1.842994971e-05
0.0159375,1.981529749e-05
0.01595833333,1.901243195e-05
0.01597916667,2.166321246e-05
0.016,2.166267768e-05
0.01602083333,2.190630221e-05
0.01604166667,2.059802864e-05
0.0160625,2.094558477e-05
0.01608333333,1.935155524e-05
0.01610416667,1.916704605e-05
0.016125,1.947328201e-05
0.01614583333,2.127490006e-05
0.01616666667,2.311066055e-05
0.0161875,2.302765097e-05
0.01620833333,2.159703581e-05
0.01622916667,2.193346336e-05
0.01625,2.120721001e-05
0.01627083333,2.183840843e-05
0.01629166667,1.940263974e-05
0.0163125,1.770491144e-05
0.01633333333,1.439649623e-05
0.01635416667,1.390454509e-05
0.016375,1.373279065e-05
0.01639583333,1.429476742e-05
0.01641666667,1.442916982e-05
0.0164375,1.568812149e-05
0.01645833333,1.517392138e-05
0.01647916667,1.163059824e-05
0.0165,9.749385754e-06
0.01652083333,1.031521151e-05
0.01654166667,9.861778381e-06
0.0165625,9.818117178e-06
0.01658333333,6.939734703e-06
0.01660416667,7.766652743e-06
0.016625,5.797416634e-06
0.01664583333,8.536227142e-06
0.01666666667,9.751413927e-06
0.0166875,1.183242966e-05
0.01670833333,1.359345424e-05
0.01672916667,1.315801637e-05
0.01675,1.483784945e-05
0.01677083333,1.808334491e-05
0.01679166667,1.594917921e-05
0.0168125,1.598209747e-05
0.01683333333,1.583800258e-05
0.01685416667,1.627434904e-05
0.016875,1.821477963e-05
0.01689583333,2.250479156e-05
0.01691666667,2.371730443e-05
0.0169375,2.629358823e-05
0.01695833333,2.422689067e-05
0.01697916667,2.101298014e-05
0.017,1.666720709e-05
0.01702083333,1.606636397e-05
0.01704166667,1.683536357e-05
0.0170625,1.729717587e-05
0.01708333333,1.829981011e-05
0.01710416667,1.849053297e-05
0.017125,1.880147101e-05
0.01714583333,2.132079135e-05
0.01716666667,2.137698175e-05
0.0171875,2.333663542e-05
0.01720833333,2.361602128e-05
0.01722916667,2.527573997e-05
0.01725,2.494449654e-05
0.01727083333,2.628715811e-05
0.01729166667,2.654988748e-05
0.0173125,2.391817179e-05
0.01733333333,2.147934538e-05
0.01735416667,2.170539483e-05
0.017375,2.387336826e-05
0.01739583333,2.778515227e-05
0.01741666667,3.397334149e-05
0.0174375,4.045882088e-05
0.01745833333,4.107295536e-05
0.01747916667,4.098093268e-05
0.0175,3.784901492e-05
0.01752083333,3.028886749e-05
0.01754166667,2.620080886e-05
0.0175625,2.709469845e-05
0.01758333333,2.725289232e-05
0.01760416667,2.808745921e-05
0.017625,3.075841232e-05
0.01764583333,2.887012852e-05
0.01766666667,2.749603664e-05
0.0176875,2.825486445e-05
0.01770833333,2.95223781e-05
0.01772916667,3.183846275e-05
0.01775,3.340509647e-05
0.01777083333,3.437812848e-05
0.01779166667,2.788967686e-05
0.0178125,2.392450006e-05
0.01783333333,1.905116369e-05
0.01785416667,1.926975892e-05
0.017875,1.588166378e-05
0.01789583333,1.761993008e-05
0.01791666667,1.644768963e-05
0.0179375,1.837764285e-05
0.01795833333,1.905863246e-05
0.01797916667,2.1988566e-05
0.018,2.331231008e-05
0.01802083333,2.096149183e-05
0.01804166667,1.671474092e-05
0.0180625,1.700927169e-05
0.01808333333,1.502914893e-05
0.01810416667,1.406348929e-05
0.018125,1.146954492e-05
0.01814583333,1.320315459e-05
0.01816666667,1.430995871e-05
0.0181875,1.40658467e-05
0.01820833333,1.420440094e-05
0.01822916667,1.655306005e-05
0.01825,1.851859815e-05
0.01827083333,1.510905076e-05
0.01829166667,1.48014924e-05
0.0183125,1.25690658e-05
0.01833333333,9.720672097e-06
0.01835416667,9.342156773e-06
0.018375,8.425476153e-06
0.01839583333,9.656879229e-06
0.01841666667,8.507578968e-06
0.0184375,5.800731287e-06
0.01845833333,1.403994588e-06
0.01847916667,1.804422027e-06
0.0185,6.693165687e-06
0.01852083333,8.98471626e-06
0.01854166667,7.992841347e-06
0.0185625,5.726036761e-06
0.01858333333,2.986965001e-06
0.01860416667,-7.788078165e-07
0.018625,-5.642318683e-07
0.01864583333,2.645209406e-06
0.01866666667,2.282761216e-06
0.0186875,3.613230547e-06
0.01870833333,-1.387602424e-06
0.01872916667,1.716085535e-06
0.01875,1.190785042e-06
0.01877083333,1.373932719e-06
0.01879166667,5.362926458e-07
0.0188125,1.125863491e-08
0.01883333333,-2.648652298e-06
0.01885416667,-5.237472124e-06
0.018875,-6.739362107e-06
0.01889583333,-7.970349543e-06
0.01891666667,-9.672093256e-06
0.0189375,-1.261502803e-05
0.01895833333,-1.942198651e-05
0.01897916667,-2.250342368e-05
0.019,-2.542422226e-05
0.01902083333,-2.479979958e-05
0.01904166667,-2.816250344e-05
0.0190625,-3.060177551e-05
0.01908333333,-3.382385694e-05
0.01910416667,-3.460683001e-05
0.019125,-3.366529563e-05
0.01914583333,-2.988686538e-05
0.01916666667,-2.682385093e-05
0.0191875,-2.840082379e-05
0.01920833333,-3.187929906e-05
0.01922916667,-3.179808846e-05
0.01925,-3.770344847e-05
0.01927083333,-4.087367051e-05
0.01929166667,-4.730412184e-05
0.0193125,-5.034698552e-05
0.01933333333,-5.016064461e-05
0.01935416667,-4.633557546e-05
0.019375,-4.415574949e-05
0.01939583333,-3.927604848e-05
0.01941666667,-3.795104931e-05
0.0194375,-4.065277608e-05
0.01945833333,-4.402767445e-05
0.01947916667,-4.429327964e-05
0.0195,-3.914419722e-05
0.01952083333,-3.344355355e-05
0.01954166667,-3.383681178e-05
0.0195625,-3.616628237e-05
0.01958333333,-4.077032645e-05
0.01960416667,-4.289309072e-05
0.019625,-4.368006557e-05
0.01964583333,-3.989586548e-05
0.01966666667,-3.518619997e-05
0.0196875,-3.378439578e-05
0.01970833333,-3.132609345e-05
0.01972916667,-3.018985626e-05
0.01975,-3.049456427e-05
0.01977083333,-2.836897511e-05
0.01979166667,-3.338294846e-05
0.0198125,-3.464193287e-05
0.01983333333,-3.551926784e-05
0.01985416667,-3.459119034e-05
0.019875,-2.843139009e-05
0.01989583333,-2.759663039e-05
0.01991666667,-2.526490243e-05
0.0199375,-2.422698344e-05
0.01995833333,-2.710556146e-05
0.01997916667,-3.565927182e-05
0.02,-5.690095713e-05
0.02002083333,-5.923969729e-05
0.02004166667,-6.061658496e-05
0.0200625,-6.250775914e-05
0.02008333333,-6.545995711e-05
0.02010416667,-6.983874482e-05
0.020125,-7.069518324e-05
0.02014583333,-6.571099948e-05
0.02016666667,-6.32336596e-05
0.0201875,-5.749643606e-05
0.02020833333,-5.311560381e-05
0.02022916667,-4.976177661e-05
0.02025,-4.778878065e-05
0.02027083333,-4.819350579e-05
0.02029166667,-5.39181201e-05
0.0203125,-5.767756375e-05
0.02033333333,-5.983906158e-05
0.02035416667,-5.544348096e-05
0.020375,-5.18824927e-05
0.02039583333,-4.702612932e-05
0.02041666667,-4.808559243e-05
0.0204375,-4.518869537e-05
0.02045833333,-4.03944141e-05
0.02047916667,-3.511105388e-05
0.0205,-2.844504343e-05
0.02052083333,-2.450945976e-05
0.02054166667,-2.0730693e-05
0.0205625,-2.344753557e-05
0.02058333333,-2.857647451e-05
0.02060416667,-3.519654638e-05
0.020625,-3.853056478e-05
0.02064583333,-4.089045251e-05
0.02066666667,-4.204422294e-05
0.0206875,-4.035458915e-05
0.02070833333,-3.92426482e-05
0.02072916667,-3.451604789e-05
0.02075,-3.189951894e-05
0.02077083333,-3.233416282e-05
0.02079166667,-3.495458805e-05
0.0208125,-4.293241363e-05
0.02083333333,-4.52518434e-05
0.02085416667,-4.640762199e-05
0.020875,-4.994042683e-05
0.02089583333,-5.048387902e-05
0.02091666667,-5.76641869e-05
0.0209375,-6.2901403e-05
0.02095833333,-6.072645192e-05
0.02097916667,-5.988074554e-05
0.021,-6.001121801e-05
0.02102083333,-5.736723688e-05
0.02104166667,-6.303894043e-05
0.0210625,-6.494366244e-05
0.02108333333,-6.559291069e-05
0.02110416667,-6.657611812e-05
0.021125,-6.804040459e-05
0.02114583333,-7.129793812e-05
0.02116666667,-7.826912042e-05
0.0211875,-9.531938122e-05
0.02120833333,-0.0001048429476
0.02122916667,-0.0001038405608
0.02125,-9.636130562e-05
0.02127083333,-8.366533439e-05
0.02129166667,-7.954763714e-05
0.0213125,-8.156691183e-05
0.02133333333,-8.051674376e-05
0.02135416667,-8.003519906e-05
0.021375,-7.962185919e-05
0.02139583333,-7.68268219e-05
0.02141666667,-7.897143951e-05
0.0214375,-8.730500122e-05
0.02145833333,-9.513296391e-05
0.02147916667,-0.0001004441947
0.0215,-9.652671724e-05
0.02152083333,-9.308032168e-05
0.02154166667,-9.222300287e-05
0.0215625,-9.660539217e-05
0.02158333333,-0.0001038242917
0.02160416667,-0.0001066259283
0.021625,-0.0001068906422
0.02164583333,-0.0001026512546
0.02166666667,-0.0001118277141
0.0216875,-0.0001213757496
0.02170833333,-0.0001354322303
0.02172916667,-0.0001431560377
0.02175,-0.0001444608497
0.02177083333,-0.0001458349579
0.02179166667,-0.0001417039457
0.0218125,-0.0001407218224
0.02183333333,-0.0001470884308
0.02185416667,-0.0001487007103
0.021875,-0.0001471539435
0.02189583333,-0.0001376141445
0.02191666667,-0.0001343918266
0.0219375,-0.0001456671162
0.02195833333,-0.000161464166
0.02197916667,-0.0001771250827
0.022,-0.0001859212643
0.02202083333,-0.0001757455466
0.02204166667,-0.0001661253191
0.0220625,-0.0001606942533
0.02208333333,-0.0001558510703
0.02210416667,-0.0001589858584
0.022125,-0.0001601197873
0.02214583333,-0.000154254114
0.02216666667,-0.0001552251779
0.0221875,-0.0001592903282
0.02220833333,-0.0001714770915
0.02222916667,-0.0001802406623
0.02225,-0.0001837409363
0.02227083333,-0.0001830188849
0.02229166667,-0.0001841554185
0.0223125,-0.0001918544876
0.02233333333,-0.0001983652619
0.02235416667,-0.0002042315027
0.022375,-0.000197600777
0.02239583333,-0.0001809417881
0.02241666667,-0.0001687330077
0.0224375,-0.000166731741
0.02245833333,-0.0001820572361
0.02247916667,-0.0002115595562
0.0225,-0.0002402604732
0.02252083333,-0.0002531256469
0.02254166667,-0.000255095074
0.0225625,-0.0002380109217
0.02258333333,-0.0002263981005
0.02260416667,-0.0002214004344
0.022625,-0.0002239799069
0.02264583333,-0.0002253140119
0.02266666667,-0.0002171622909
0.0226875,-0.0002013312187
0.02270833333,-0.0001951686281
0.02272916667,-0.0001919567731
0.02275,-0.0001961996313
0.02277083333,-0.0002057105594
0.02279166667,-0.0002100218262
0.0228125,-0.000214755346
0.02283333333,-0.0002135684044
0.02285416667,-0.0002128441702
0.022875,-0.000215716369
0.02289583333,-0.0002065542212
0.02291666667,-0.000195398592
0.0229375,-0.0001803164487
0.02295833333,-0.0001735262049
0.02297916667,-0.0001767020585
0.023,-0.0001905679819
0.02302083333,-0.000207652789
0.02304166667,-0.0002164540638
0.0230625,-0.0002186357451
0.02308333333,-0.0002098272671
0.02310416667,-0.0002052295895
0.023125,-0.0002169391664
0.02314583333,-0.0002214142005
0.02316666667,-0.0002242021437
0.0231875,-0.00022632131
0.02320833333,-0.0002070840565
0.02322916667,-0.0001963821414
0.02325,-0.0001939607027
0.02327083333,-0.0001914580062
0.02329166667,-0.0001987990399
0.0233125,-0.0002071752679
0.02333333333,-0.0002058051468
0.02335416667,-0.0002058614045
0.023375,-0.000206805882
0.02339583333,-0.0002004637936
0.02341666667,-0.000204468015
0.0234375,-0.0002082077262
0.02345833333,-0.0001924211101
0.02347916667,-0.0001878518815
0.0235,-0.0001901110663
0.02352083333,-0.00019447878
0.02354166667,-0.0002106907777
0.0235625,-0.000217976878
0.02358333333,-0.0002207893704
0.02360416667,-0.0002210720268
0.023625,-0.0002149428183
0.02364583333,-0.000213519932
0.02366666667,-0.0002209723316
0.0236875,-0.0002285969676
0.02370833333,-0.0002388208231
0.02372916667,-0.0002374639153
0.02375,-0.0002377609489
0.02377083333,-0.0002298666514
0.02379166667,-0.0002334248275
0.0238125,-0.0002322731889
0.02383333333,-0.0002454795176
0.02385416667,-0.0002500507981
0.023875,-0.0002499555121
0.02389583333,-0.0002458096133
0.02391666667,-0.0002461060649
0.0239375,-0.0002461951808
0.02395833333,-0.0002349044371
0.02397916667,-0.000221775641
0.024,-0.0002062856947
0.02402083333,-0.0001982222166
0.02404166667,-0.0001973577309
0.0240625,-0.000201640767
0.02408333333,-0.000204685959
0.02410416667,-0.0002018683444
0.024125,-0.0001893918379
0.02414583333,-0.0001812240516
0.02416666667,-0.0001752391545
0.0241875,-0.0001676182728
0.02420833333,-0.0001655937813
0.02422916667,-0.0001628372556
0.02425,-0.0001594058122
0.02427083333,-0.0001546943677
0.02429166667,-0.0001510266447
0.0243125,-0.000149735497
0.02433333333,-0.00015003921
0.02435416667,-0.0001523029205
0.024375,-0.0001497533376
0.02439583333,-0.0001458701008
0.02441666667,-0.0001523946703
0.0244375,-0.0001621442061
0.02445833333,-0.0001660030102
0.02447916667,-0.0001700498397
0.0245,-0.000172148546
0.02452083333,-0.0001727904164
0.02454166667,-0.0001710809884
0.0245625,-0.0001739574363
0.02458333333,-0.0001789012167
0.02460416667,-0.0001775677229
0.024625,-0.0001699410932
0.02464583333,-0.0001630637125
0.02466666667,-0.0001513052703
0.0246875,-0.0001503674139
0.02470833333,-0.0001451128337
0.02472916667,-0.0001482868247
0.02475,-0.0001525327825
0.02477083333,-0.0001431305573
0.02479166667,-0.0001380886679
0.0248125,-0.0001384416828
0.02483333333,-0.0001390486577
0.02485416667,-0.0001359583403
0.024875,-0.0001303338649
0.02489583333,-0.000118646356
0.02491666667,-0.0001046383186
0.0249375,-8.68246716e-05
0.02495833333,-6.727108848e-05
0.02497916667,-5.15483116e-05
0.025,-5.529780174e-05
0.02502083333,-6.573567225e-05
0.02504166667,-8.433373296e-05
0.0250625,-0.0001034773013
0.02508333333,-0.0001113196777
0.02510416667,-0.0001122082613
0.025125,-0.0001094808395
0.02514583333,-0.0001036186877
0.02516666667,-0.0001058661437
0.0251875,-0.0001112778918
0.02520833333,-0.0001111008969
0.02522916667,-0.0001157239967
0.02525,-0.0001206633606
0.02527083333,-0.000128044645
0.02529166667,-0.0001357057481
0.0253125,-0.0001545085543
0.02533333333,-0.0001665872696
0.02535416667,-0.0001743122266
0.025375,-0.0001737883576
0.02539583333,-0.000165473044
0.02541666667,-0.0001615404617
0.0254375,-0.0001665329619
0.02545833333,-0.0001643929863
0.02547916667,-0.00015268274
0.0255,-0.0001440845663
0.02552083333,-0.0001365771896
0.02554166667,-0.0001389613899
0.0255625,-0.0001522709499
0.02558333333,-0.0001509247522
0.02560416667,-0.0001536823693
0.025625,-0.0001577681251
0.02564583333,-0.0001536007767
0.02566666667,-0.0001608189486
0.0256875,-0.0001662285795
0.02570833333,-0.0001639225229
0.02572916667,-0.0001604009594
0.02575,-0.0001556787465
0.02577083333,-0.000139712909
0.02579166667,-0.0001423157519
0.0258125,-0.0001604031713
0.02583333333,-0.0001715559047
0.02585416667,-0.0001744756737
0.025875,-0.0001764984627
0.02589583333,-0.0001669421035
0.02591666667,-0.0001660004782
0.0259375,-0.0001722017623
0.02595833333,-0.0001698970882
0.02597916667,-0.0001657235262
0.026,-0.0001664804295
0.02602083333,-0.000158598501
0.02604166667,-0.0001654327934
0.0260625,-0.0001848156971
0.02608333333,-0.0001961199159
0.02610416667,-0.0002030996693
0.026125,-0.0001881252829
0.02614583333,-0.0001732589299
0.02616666667,-0.0001811046677
0.0261875,-0.000195266417
0.02620833333,-0.0002075754892
0.02622916667,-0.0002237059962
0.02625,-0.0002146999614
0.02627083333,-0.0002047244052
0.02629166667,-0.0001963187533
0.0263125,-0.0002075697703
0.02633333333,-0.000213832478
0.02635416667,-0.0002162107121
0.026375,-0.0002105437306
0.02639583333,-0.0002007340809
0.02641666667,-0.0001864894002
0.0264375,-0.000187436337
0.02645833333,-0.000185000943
0.02647916667,-0.0001927387057
0.0265,-0.0001825879881
0.02652083333,-0.0001736718405
0.02654166667,-0.0001721265144
0.0265625,-0.0001866154053
0.02658333333,-0.0002045950387
0.02660416667,-0.0002113113878
0.026625,-0.0002026507136
0.02664583333,-0.000184421282
0.02666666667,-0.0001733340614
0.0266875,-0.0001727200288
0.02670833333,-0.0001846796949
0.02672916667,-0.0001874517475
0.02675,-0.0001829996618
0.02677083333,-0.0001693542727
0.02679166667,-0.0001676953398
0.0268125,-0.0001829431567
0.02683333333,-0.0002167930943
0.02685416667,-0.0002437386429
0.026875,-0.0002476399532
0.02689583333,-0.0002251102414
0.02691666667,-0.0002106414322
0.0269375,-0.0002055471705
0.02695833333,-0.0002114122763
0.02697916667,-0.0002298673062
0.027,-0.0002408232394
0.02702083333,-0.0002249680983
0.02704166667,-0.0002159571886
0.0270625,-0.0002317671897
0.02708333333,-0.0002531266073
0.02710416667,-0.0002868101292
0.027125,-0.0003008021449
0.02714583333,-0.0002902755514
0.02716666667,-0.000281787361
0.0271875,-0.0002692618291
0.02720833333,-0.0002808429126
0.02722916667,-0.0002994327806
0.02725,-0.0002931434428
0.02727083333,-0.0002743432415
0.02729166667,-0.0002530657221
0.0273125,-0.0002575586259
0.02733333333,-0.0002801370574
0.02735416667,-0.0003206309048
0.027375,-0.0003392752842
0.02739583333,-0.0003392318322
0.02741666667,-0.0003202962689
0.0274375,-0.000308880466
0.02745833333,-0.0003159713815
0.02747916667,-0.0003554248251
0.0275,-0.0003832243674
0.02752083333,-0.0003956010041
0.02754166667,-0.0003841868311
0.0275625,-0.0003689980949
0.02758333333,-0.0003640628711
0.02760416667,-0.0003838120901
0.027625,-0.0004094035539
0.02764583333,-0.0004228556936
0.02766666667,-0.0004159691453
0.0276875,-0.000389814435
0.02770833333,-0.0003686840646
0.02772916667,-0.0003714897612
0.02775,-0.0003821215942
0.02777083333,-0.000387958542
0.02779166667,-0.0003924045886
0.0278125,-0.0003953613341
0.02783333333,-0.0004004351213
0.02785416667,-0.0004116387281
0.027875,-0.0004151301691
0.02789583333,-0.0003918990551
0.02791666667,-0.0003823188308
0.0279375,-0.0003720932582
0.02795833333,-0.0003580796765
0.02797916667,-0.0003812696086
0.028,-0.0004000490007
0.02802083333,-0.000394589355
0.02804166667,-0.0003964996722
0.0280625,-0.0003942145268
0.02808333333,-0.0003923557524
0.02810416667,-0.0004129309673
0.028125,-0.000426076178
0.02814583333,-0.0004363245971
0.02816666667,-0.0004518886853
0.0281875,-0.0004417218734
0.02820833333,-0.0004275985993
0.02822916667,-0.0004186194274
0.02825,-0.0004191809567
0.02827083333,-0.0004199803807
0.02829166667,-0.0004408803361
0.0283125,-0.0004586381838
0.02833333333,-0.0004718205309
0.02835416667,-0.0004913235316
0.028375,-0.0004791808315
0.02839583333,-0.0004778926668
0.02841666667,-0.0004831412225
0.0284375,-0.0004708057386
0.02845833333,-0.0004463544465
0.02847916667,-0.0004407803935
0.0285,-0.0004425226944
0.02852083333,-0.0004364843771
0.02854166667,-0.0004502305528
0.0285625,-0.0004681885766
0.02858333333,-0.0005023812409
0.02860416667,-0.0005305440282
0.028625,-0.000535199244
0.02864583333,-0.0005002497346
0.02866666667,-0.0004857329477
0.0286875,-0.0004636452068
0.02870833333,-0.0004871475976
0.02872916667,-0.0005559921265
0.02875,-0.0006092811818
0.02877083333,-0.0006047823117
0.02879166667,-0.0006048253272
0.0288125,-0.0005955224042
0.02883333333,-0.0005964156007
0.02885416667,-0.0006503724144
0.028875,-0.0007239760016
0.02889583333,-0.0007320246659
0.02891666667,-0.0007487828261
0.0289375,-0.00072293618
0.02895833333,-0.0006592616555
0.02897916667,-0.0006541283219
0.029,-0.0006841006107
0.02902083333,-0.0006904434995
0.02904166667,-0.0007314132527
0.0290625,-0.0007499633357
0.02908333333,-0.0007789958618
0.02910416667,-0.0007900782512
0.029125,-0.0007961992524
0.02914583333,-0.0007373699336
0.02916666667,-0.0007106045377
0.0291875,-0.0006448602071
0.02920833333,-0.0006021569134
0.02922916667,-0.000588354771
0.02925,-0.0006105377688
0.02927083333,-0.0006483142497
0.02929166667,-0.0006411148352
0.0293125,-0.0006389115588
0.02933333333,-0.0005891826004
0.02935416667,-0.00058892573
0.029375,-0.0006513306871
0.02939583333,-0.0006526191719
0.02941666667,-0.0007275355747
0.0294375,-0.0007290609065
0.02945833333,-0.0006813871441
0.02947916667,-0.0005563578452
0.0295,-0.0005064569996
0.02952083333,-0.0004724956816
0.02954166667,-0.0005796625628
0.0295625,-0.0007292600349
0.02958333333,-0.0008231546963
0.02960416667,-0.0009375463123
0.029625,-0.0008942097193
0.02964583333,-0.0008568990161
0.02966666667,-0.0007696211687
0.0296875,-0.000763622229
0.02970833333,-0.0007911567227
0.02972916667,-0.0007490879507
0.02975,-0.0007772236713
0.02977083333,-0.0006241220981
0.02979166667,-0.0006437866832
0.0298125,-0.0006349849864
0.02983333333,-0.0006817229441
0.02985416667,-0.0008471606998
0.029875,-0.0008208720828
0.02989583333,-0.0006615801249
0.02991666667,-0.0005557513214
0.0299375,-0.0007411031984
0.02995833333,-0.001172054326
0.02997916667,-0.001658296213
0.03,0.002598866122
0.03002083333,0.002027598908
0.03004166667,0.001585684135
0.0300625,0.001352135092
0.03008333333,0.001433024765
0.03010416667,0.00157806091
0.030125,0.001560509671
0.03014583333,0.001278730109
0.03016666667,0.001197930658
0.0301875,0.001201990759
0.03020833333,0.001170186093
0.03022916667,0.0013055288
0.03025,0.001234152587
0.03027083333,0.001263143378
0.03029166667,0.001216280973
0.0303125,0.001212039846
0.03033333333,0.001237495337
0.03035416667,0.001173053985
0.030375,0.001189915929
0.03039583333,0.0009602460195
0.03041666667,0.0007913441514
0.0304375,0.0005499689723
0.03045833333,0.0003589446715
0.03047916667,0.0003751617041
0.0305,0.0003640585346
0.03052083333,0.0004354995908
0.03054166667,0.000419967866
0.0305625,0.0004103630781
0.03058333333,0.0003626208636
0.03060416667,0.0003635273315
0.030625,0.0002739238553
0.03064583333,0.0002571963414
0.03066666667,0.000276835839
0.0306875,0.0002196198766
0.03070833333,0.0001528224529
0.03072916667,4.381274266e-05
0.03075,-6.67644199e-05
0.03077083333,-0.000105230436
0.03079166667,-8.975414676e-05
0.0308125,-9.072788816e-05
0.03083333333,-0.0001053612505
0.03085416667,-5.810630682e-05
0.030875,-6.052753088e-05
0.03089583333,-9.671985026e-05
0.03091666667,-0.0001206663146
0.0309375,-0.0001531162707
0.03095833333,-0.0002523423755
0.03097916667,-0.0003429636126
0.031,-0.0004312904202
0.03102083333,-0.00044039145
0.03104166667,-0.0004656089877
0.0310625,-0.000509222562
0.03108333333,-0.00055771193
0.03110416667,-0.000582595414
0.031125,-0.0007219634717
0.03114583333,-0.0007842705818
0.03116666667,-0.0008085275185
0.0311875,-0.0008330151322
0.03120833333,-0.0008463577833
0.03122916667,-0.0009635969182
0.03125,-0.00105243735
0.03127083333,-0.001048944076
0.03129166667,-0.001172960619
0.0313125,-0.001208240283
0.03133333333,-0.001222339575
0.03135416667,-0.001244320185
0.031375,-0.00127145485
0.03139583333,-0.001383771887
0.03141666667,-0.001462844899
0.0314375,-0.001554637798
0.03145833333,-0.001603570185
0.03147916667,-0.001619172748
0.0315,-0.00170881208
0.03152083333,-0.001700975699
0.03154166667,-0.001683072885
0.0315625,-0.001704655704
0.03158333333,-0.001734190853
0.03160416667,-0.001749044401
0.031625,-0.001735134399
0.03164583333,-0.001743500936
0.03166666667,-0.001805637614
0.0316875,-0.001885987818
0.03170833333,-0.001962184208
0.03172916667,-0.002049506875
0.03175,-0.002146190265
0.03177083333,-0.002206062898
0.03179166667,-0.002297546016
0.0318125,-0.002383697312
0.03183333333,-0.002426115563
0.03185416667,-0.002494810382
0.031875,-0.002533495892
0.03189583333,-0.002572133671
0.03191666667,-0.002564595081
0.0319375,-0.002537689172
0.03195833333,-0.002577192616
0.03197916667,-0.002617723541
0.032,-0.002661676379
0.03202083333,-0.002783016302
0.03204166667,-0.002873210702
0.0320625,-0.002928025555
0.03208333333,-0.003062638221
0.03210416667,-0.003175045829
0.032125,-0.003292416921
0.03214583333,-0.003435378429
0.03216666667,-0.003551984672
0.0321875,-0.003627240425
0.03220833333,-0.003703491297
0.03222916667,-0.003760381136
0.03225,-0.003821691964
0.03227083333,-0.003844789928
0.03229166667,-0.003865897655
0.0323125,-0.003919235431
0.03233333333,-0.003972854465
0.03235416667,-0.004084711894
0.032375,-0.004183791578
0.03239583333,-0.004349085037
0.03241666667,-0.004398116842
0.0324375,-0.004462223966
0.03245833333,-0.004419776145
0.03247916667,-0.004360640887
0.0325,-0.004425765481
0.03252083333,-0.004472989123
0.03254166667,-0.004473910201
0.0325625,-0.004460089374
0.03258333333,-0.004464248195
0.03260416667,-0.004522587638
0.032625,-0.004652230069
0.03264583333,-0.00476662349
0.03266666667,-0.004887113813
0.0326875,-0.005056299269
0.03270833333,-0.005201192573
0.03272916667,-0.005328969099
0.03275,-0.005468767602
0.03277083333,-0.005602780264
0.03279166667,-0.005712246522
0.0328125,-0.005763906986
0.03283333333,-0.005834721029
0.03285416667,-0.005897537339
0.032875,-0.005987716839
0.03289583333,-0.006107992958
0.03291666667,-0.006212096196
0.0329375,-0.006328478921
0.03295833333,-0.006407599431
0.03297916667,-0.006461013108
0.033,-0.006596036255
0.03302083333,-0.006759311538
0.03304166667,-0.006850242149
0.0330625,-0.006992466282
0.03308333333,-0.007122654002
0.03310416667,-0.007230709307
0.033125,-0.007321647834
0.03314583333,-0.007498817518
0.03316666667,-0.007630086504
0.0331875,-0.007649051957
0.03320833333,-0.007687662262
0.03322916667,-0.007697097491
0.03325,-0.007754408754
0.03327083333,-0.007793333381
0.03329166667,-0.007906684652
0.0333125,-0.00800580997
0.03333333333,-0.008071719669
0.03335416667,-0.0081846416
0.033375,-0.008251114748
0.03339583333,-0.008414145559
0.03341666667,-0.008666308597
0.0334375,-0.008803090081
0.03345833333,-0.008921897039
0.03347916667,-0.009015397169
0.0335,-0.00907768961
0.03352083333,-0.009176556952
0.03354166667,-0.009240625426
0.0335625,-0.009314725175
0.03358333333,-0.009363381192
0.03360416667,-0.009434111416
0.033625,-0.009519925341
0.03364583333,-0.009590725414
0.03366666667,-0.009674478322
0.0336875,-0.009712324478
0.03370833333,-0.009735709056
0.03372916667,-0.009785987437
0.03375,-0.009846906178
0.03377083333,-0.009939436801
0.03379166667,-0.01006064657
0.0338125,-0.01017414499
0.03383333333,-0.01023030654
0.03385416667,-0.01027765591
0.033875,-0.01029138919
0.03389583333,-0.01030442584
0.03391666667,-0.01039648335
0.0339375,-0.01048881654
0.03395833333,-0.01052505895
0.03397916667,-0.01055546664
0.034,-0.01070886105
0.03402083333,-0.01075788401
0.03404166667,-0.01083068922
0.0340625,-0.01090969238
0.03408333333,-0.01102774497
0.03410416667,-0.0110532511
0.034125,-0.01104856282
0.03414583333,-0.01109721139
0.03416666667,-0.0111327013
0.0341875,-0.01115734782
0.03420833333,-0.01120597683
0.03422916667,-0.01115751732
0.03425,-0.01121733058
0.03427083333,-0.01135741733
0.03429166667,-0.01139163971
0.0343125,-0.01142599154
0.03433333333,-0.01157505624
0.03435416667,-0.01168082468
0.034375,-0.01178269275
0.03439583333,-0.01184460428
0.03441666667,-0.01188502181
0.0344375,-0.01190999802
0.03445833333,-0.01197285671
0.03447916667,-0.01201718021
0.0345,-0.01187006105
0.03452083333,-0.01185167581
0.03454166667,-0.01183109451
0.0345625,-0.01179854665
0.03458333333,-0.01186573692
0.03460416667,-0.01182085089
0.034625,-0.01190085616
0.03464583333,-0.01188381854
0.03466666667,-0.01183191687
0.0346875,-0.01203345042
0.03470833333,-0.0121274963
0.03472916667,-0.01216021087
0.03475,-0.01224854123
0.03477083333,-0.01232010126
0.03479166667,-0.01228405256
0.0348125,-0.01231138967
0.03483333333,-0.01229312923
0.03485416667,-0.0123045966
0.034875,-0.01232637744
0.03489583333,-0.01236196887
0.03491666667,-0.01234588958
0.0349375,-0.01237946097
0.03495833333,-0.01247963496
0.03497916667,-0.01257390063
0.035,-0.01261215284
0.03502083333,-0.01264990401
0.03504166667,-0.01269825548
0.0350625,-0.01275798306
0.03508333333,-0.01286509167
0.03510416667,-0.0128848711
0.035125,-0.01294118259
0.03514583333,-0.01295268629
0.03516666667,-0.01290614996
0.0351875,-0.01290539745
0.03520833333,-0.01291331742
0.03522916667,-0.01287454553
0.03525,-0.01287751924
0.03527083333,-0.01294360217
0.03529166667,-0.01306432299
0.0353125,-0.01321197115
0.03533333333,-0.01338959392
0.03535416667,-0.01354509871
0.035375,-0.01375481114
0.03539583333,-0.01390218362
0.03541666667,-0.01394960191
0.0354375,-0.01402720902
0.03545833333,-0.01402077079
0.03547916667,-0.0140241459
0.0355,-0.01413011737
0.03552083333,-0.01411107928
0.03554166667,-0.01424807776
0.0355625,-0.01423969213
0.03558333333,-0.01426663715
0.03560416667,-0.01415005047
0.035625,-0.01414918061
0.03564583333,-0.01420377288
0.03566666667,-0.01416404359
0.0356875,-0.01422790904
0.03570833333,-0.01434116345
0.03572916667,-0.01449715346
0.03575,-0.01456157211
0.03577083333,-0.01469847746
0.03579166667,-0.01475629769
0.0358125,-0.0148385698
0.03583333333,-0.0148161063
0.03585416667,-0.01486730203
0.035875,-0.01489033643
0.03589583333,-0.01489016693
0.03591666667,-0.01495920867
0.0359375,-0.01504135691
0.03595833333,-0.01515105367
0.03597916667,-0.01530757174
0.036,-0.01543098688
0.03602083333,-0.01551542245
0.03604166667,-0.01567396149
0.0360625,-0.01582528092
0.03608333333,-0.01596456207
0.03610416667,-0.01599312387
0.036125,-0.0160335172
0.03614583333,-0.0160647016
0.03616666667,-0.01603611
0.0361875,-0.01600946113
0.03620833333,-0.01612881385
0.03622916667,-0.01626860723
0.03625,-0.01635053381
0.03627083333,-0.01648207009
0.03629166667,-0.01655112207
0.0363125,-0.01664818265
0.03633333333,-0.0166984424
0.03635416667,-0.01671368629
0.036375,-0.01664073579
0.03639583333,-0.0165082328
0.03641666667,-0.01660830528
0.0364375,-0.01655488648
0.03645833333,-0.01647355594
0.03647916667,-0.01646367833
0.0365,-0.01623393409
0.03652083333,-0.01622060128
0.03654166667,-0.01610275544
0.0365625,-0.01591349579
0.03658333333,-0.01581485756
0.03660416667,-0.01568426192
0.036625,-0.01564536057
0.03664583333,-0.01561506186
0.03666666667,-0.01556793414
0.0366875,-0.01548125222
0.03670833333,-0.01541661005
0.03672916667,-0.01527010929
0.03675,-0.01523379609
0.03677083333,-0.01508056466
0.03679166667,-0.01492482703
0.0368125,-0.01472037379
0.03683333333,-0.0145218363
0.03685416667,-0.01433622744
0.036875,-0.01415607426
0.03689583333,-0.0139308311
0.03691666667,-0.01381349377
0.0369375,-0.01378805749
0.03695833333,-0.01364869066
0.03697916667,-0.01360571757
0.037,-0.0136307124
0.03702083333,-0.01365712285
0.03704166667,-0.01362678967
0.0370625,-0.01359600201
0.03708333333,-0.01351224538
0.03710416667,-0.01339061931
0.037125,-0.01338652987
0.03714583333,-0.01319526508
0.03716666667,-0.0131323887
0.0371875,-0.01302761771
0.03720833333,-0.01292523649
0.03722916667,-0.01285891049
0.03725,-0.01262425538
0.03727083333,-0.01254612394
0.03729166667,-0.01243053656
0.0373125,-0.01229745615
0.03733333333,-0.01218318474
0.03735416667,-0.01205972768
0.037375,-0.0119117694
0.03739583333,-0.01175302267
0.03741666667,-0.01156042609
0.0374375,-0.01136934943
0.03745833333,-0.01123558264
0.03747916667,-0.01103537809
0.0375,-0.01088165306
0.03752083333,-0.01066807285
0.03754166667,-0.01057156734
0.0375625,-0.01033127215
0.03758333333,-0.01006681472
0.03760416667,-0.01021808665
0.037625,-0.01001352444
0.03764583333,-0.009710783139
0.03766666667,-0.009978271089
0.0376875,-0.009903424419
0.03770833333,-0.009777495638
0.03772916667,-0.009529140778
0.03775,-0.009595226496
0.03777083333,-0.009688680992
0.03779166667,-0.009461771697
0.0378125,-0.009227061644
0.03783333333,-0.00922100991
0.03785416667,-0.008905968629
0.037875,-0.009118591435
0.03789583333,-0.009004447609
0.03791666667,-0.00894688163
0.0379375,-0.008934524842
0.03795833333,-0.008830642328
0.03797916667,-0.008779163472
0.038,-0.008682992309
0.03802083333,-0.008547775447
0.03804166667,-0.008460726589
0.0380625,-0.008433987387
0.03808333333,-0.008202168159
0.03810416667,-0.008084714413
0.038125,-0.007809553295
0.03814583333,-0.007699628361
0.03816666667,-0.007554767653
0.0381875,-0.007314290386
0.03820833333,-0.007160658017
0.03822916667,-0.006949504837
0.03825,-0.006812508218
0.03827083333,-0.00661672838
0.03829166667,-0.006514382549
0.0383125,-0.006452751812
0.03833333333,-0.006338737905
0.03835416667,-0.006164137274
0.038375,-0.006010786165
0.03839583333,-0.005880545825
0.03841666667,-0.00560702011
0.0384375,-0.005406190641
0.03845833333,-0.005104453769
0.03847916667,-0.004968227819
0.0385,-0.004742125049
0.03852083333,-0.004495049361
0.03854166667,-0.004354105797
0.0385625,-0.004359174054
0.03858333333,-0.004352166317
0.03860416667,-0.004170211032
0.038625,-0.004167966079
0.03864583333,-0.004032659344
0.03866666667,-0.003904467914
0.0386875,-0.003757189726
0.03870833333,-0.003582823556
0.03872916667,-0.003439470427
0.03875,-0.002972251037
0.03877083333,-0.002893761965
0.03879166667,-0.002439276315
0.0388125,-0.002332474105
0.03883333333,-0.001969506498
0.03885416667,-0.002023566049
0.038875,-0.001627801103
0.03889583333,-0.001779581769
0.03891666667,-0.001648824429
0.0389375,-0.001332678017
0.03895833333,-0.001381335314
0.03897916667,-0.001289148931
0.039,-0.001119255088
0.03902083333,-0.001069467748
0.03904166667,-0.0009380949195
0.0390625,-0.0007817273727
0.03908333333,-0.0004615961516
0.03910416667,-0.0002679364989
0.039125,5.788764247e-05
0.03914583333,0.0003202140215
0.03916666667,0.0004684178566
0.0391875,0.0005259751924
0.03920833333,0.0005417072098
0.03922916667,0.0004681333667
0.03925,0.000444033969
0.03927083333,0.0003670886799
0.03929166667,0.0004135072231
0.0393125,0.0005064610159
0.03933333333,0.0005603008904
0.03935416667,0.0006473988178
0.039375,0.0007295421092
0.03939583333,0.001051100786
0.03941666667,0.001364365336
0.0394375,0.00155143498
0.03945833333,0.001758217346
0.03947916667,0.001951266313
0.0395,0.00208171946
0.03952083333,0.00200047181
0.03954166667,0.002077593002
0.0395625,0.002136736643
0.03958333333,0.002175620757
0.03960416667,0.002131400863
0.039625,0.002238398883
0.03964583333,0.002431656932
0.03966666667,0.002508769277
0.0396875,0.002793637803
0.03970833333,0.002932338044
0.03972916667,0.003426874755
0.03975,0.003716518637
0.03977083333,0.004012682009
0.03979166667,0.004403779749
0.0398125,0.004419566598
0.03983333333,0.004801732954
0.03985416667,0.005014557391
0.039875,0.005092482548
0.03989583333,0.005398751236
0.03991666667,0.005442700349
0.0399375,0.005499984138
0.03995833333,0.00560297817
0.03997916667,0.005760480184
0.04,0.006053275429
0.04002083333,0.006441201549
0.04004166667,0.006770063192
0.0400625,0.007016086951
0.04008333333,0.007408018224
0.04010416667,0.007760176435
0.040125,0.008066490293
0.04014583333,0.008477346972
0.04016666667,0.008805304766
0.0401875,0.009208375588
0.04020833333,0.009558339603
0.04022916667,0.009988470934
0.04025,0.01038012747
0.04027083333,0.0107786078
0.04029166667,0.01119131036
0.0403125,0.011529468
0.04033333333,0.01201276761
0.04035416667,0.01242902502
0.040375,0.01282657776
0.04039583333,0.01330993418
0.04041666667,0.0137710087
0.0404375,0.01424092799
0.04045833333,0.01463813987
0.04047916667,0.01501215808
0.0405,0.01545557566
0.04052083333,0.01582764462
0.04054166667,0.01617252082
0.0405625,0.01648471877
0.04058333333,0.01666376926
0.04060416667,0.01690891199
0.040625,0.01717963628
0.04064583333,0.01737769321
0.04066666667,0.01762643456
0.0406875,0.0178943947
0.04070833333,0.01812870055
0.04072916667,0.0184181314
0.04075,0.0186771173
0.04077083333,0.01912110113
0.04079166667,0.01938253455
0.0408125,0.01963195391
0.04083333333,0.01998968609
0.04085416667,0.02031839453
0.040875,0.02049029432
0.04089583333,0.02083592676
0.04091666667,0.02104052901
0.0409375,0.02132787369
0.04095833333,0.0215611849
0.04097916667,0.02186133899
0.041,0.02205130272
0.04102083333,0.02226958796
0.04104166667,0.02241027169
0.0410625,0.02265640348
0.04108333333,0.02290042676
0.04110416667,0.02308582887
0.041125,0.02328672819
0.04114583333,0.02345501818
0.04116666667,0.02359259687
0.0411875,0.0237252973
0.04120833333,0.02376862243
0.04122916667,0.02387199178
0.04125,0.02384707704
0.04127083333,0.02388998866
0.04129166667,0.02396710031
0.0413125,0.02405915223
0.04133333333,0.02416780591
0.04135416667,0.02414778806
0.041375,0.02421130985
0.04139583333,0.02432070673
0.04141666667,0.02437106706
0.0414375,0.0244686082
0.04145833333,0.02474805713
0.04147916667,0.02483623847
0.0415,0.02489632741
0.04152083333,0.02513215318
0.04154166667,0.02526434325
0.0415625,0.02537854202
0.04158333333,0.02553617023
0.04160416667,0.02543138526
0.041625,0.02557112277
0.04164583333,0.02552110888
0.04166666667,0.02555509284
0.0416875,0.02574993484
0.04170833333,0.02588557638
0.04172916667,0.0261044316
0.04175,0.02627666108
0.04177083333,0.02649615705
0.04179166667,0.02659358643
0.0418125,0.02673595585
0.04183333333,0.02681789547
0.04185416667,0.02691510879
0.041875,0.02696996368
0.04189583333,0.02706277557
0.04191666667,0.02724803425
0.0419375,0.02728564292
0.04195833333,0.02735561132
0.04197916667,0.027487332
0.042,0.02749741636
0.04202083333,0.02757107094
0.04204166667,0.02753258683
0.0420625,0.02758781798
0.04208333333,0.02773074061
0.04210416667,0.02776740678
0.042125,0.02790324017
0.04214583333,0.0279422421
0.04216666667,0.02811168693
0.0421875,0.02814687788
0.04220833333,0.028189959
0.04222916667,0.02836181223
0.04225,0.02833624743
0.04227083333,0.02847717516
0.04229166667,0.02850626037
0.0423125,0.02859153412
0.04233333333,0.02860270068
0.04235416667,0.02863845043
0.042375,0.02869658731
0.04239583333,0.02873588353
0.04241666667,0.02893482521
0.0424375,0.02902230062
0.04245833333,0.02919509262
0.04247916667,0.02924761921
0.0425,0.02938343212
0.04252083333,0.02954025008
0.04254166667,0.02968846262
0.0425625,0.02976224013
0.04258333333,0.02985450067
0.04260416667,0.02996483073
0.042625,0.02998480573
0.04264583333,0.03008018434
0.04266666667,0.03018526919
0.0426875,0.03019157425
0.04270833333,0.03031447716
0.04272916667,0.03039480932
0.04275,0.03034341522
0.04277083333,0.03051546775
0.04279166667,0.03056685068
0.0428125,0.03074146993
0.04283333333,0.03084662743
0.04285416667,0.03108909912
0.042875,0.03132294863
0.04289583333,0.03154688329
0.04291666667,0.0316390954
0.0429375,0.03179349378
0.04295833333,0.03185700253
0.04297916667,0.03187891841
0.043,0.03193064034
0.04302083333,0.03197463602
0.04304166667,0.03208522871
0.0430625,0.03210235387
0.04308333333,0.03211694211
0.04310416667,0.03214085847
0.043125,0.0321710743
0.04314583333,0.03225586563
0.04316666667,0.03232142702
0.0431875,0.03245879337
0.04320833333,0.03243056312
0.04322916667,0.03252932802
0.04325,0.0326051116
0.04327083333,0.03263850138
0.04329166667,0.03274804354
0.0433125,0.03275742382
0.04333333333,0.03280216828
0.04335416667,0.03291423991
0.043375,0.03292198107
0.04339583333,0.03304200247
0.04341666667,0.03320513666
0.0434375,0.03324607015
0.04345833333,0.03345136717
0.04347916667,0.03362596408
0.0435,0.0337170139
0.04352083333,0.03384720907
0.04354166667,0.03393516317
0.0435625,0.03396963328
0.04358333333,0.03401006013
0.04360416667,0.03399275988
0.043625,0.03399291262
0.04364583333,0.03403731436
0.04366666667,0.0340728946
0.0436875,0.03416188061
0.04370833333,0.03417586163
0.04372916667,0.03424305841
0.04375,0.034256313
0.04377083333,0.03446605802
0.04379166667,0.03453335911
0.0438125,0.03466495499
0.04383333333,0.03484006226
0.04385416667,0.03487604111
0.043875,0.03509573638
0.04389583333,0.03523366898
0.04391666667,0.03534923494
0.0439375,0.0353342928
0.04395833333,0.03528014198
0.04397916667,0.03548170999
0.044,0.03544732928
0.04402083333,0.03545676172
0.04404166667,0.03561216593
0.0440625,0.03578648716
0.04408333333,0.03592215851
0.04410416667,0.03611046448
0.044125,0.03634506091
0.04414583333,0.03637117893
0.04416666667,0.03649687767
0.0441875,0.03666228801
0.04420833333,0.0367638804
0.04422916667,0.0369309634
0.04425,0.03686272725
0.04427083333,0.03702987731
0.04429166667,0.03695813566
0.0443125,0.03697386011
0.04433333333,0.03687981889
0.04435416667,0.03676376864
0.044375,0.03663019091
0.04439583333,0.03644599393
0.04441666667,0.03633248806
0.0444375,0.03634233773
0.04445833333,0.0364180766
0.04447916667,0.03647314757
0.0445,0.03639970347
0.04452083333,0.03647883609
0.04454166667,0.03649070114
0.0445625,0.03649035469
0.04458333333,0.03641267866
0.04460416667,0.03645308688
0.044625,0.03643515334
0.04464583333,0.03640603274
0.04466666667,0.03636708483
0.0446875,0.03631118685
0.04470833333,0.03647981584
0.04472916667,0.03628760204
0.04475,0.03648675978
0.04477083333,0.03649055958
0.04479166667,0.03659089282
0.0448125,0.03695740178
0.04483333333,0.03709964082
0.04485416667,0.03722348437
0.044875,0.03731799126
0.04489583333,0.037244495
0.04491666667,0.0373602137
0.0449375,0.03719326854
0.04495833333,0.03724095598
0.04497916667,0.03711633384
0.045,0.03694536537
0.04502083333,0.03691545874
0.04504166667,0.03689832985
0.0450625,0.03697899729
0.04508333333,0.0370303914
0.04510416667,0.03711814433
0.045125,0.03730579466
0.04514583333,0.03728947416
0.04516666667,0.03760050982
0.0451875,0.03788573667
0.04520833333,0.03787197173
0.04522916667,0.03806306794
0.04525,0.03815893456
0.04527083333,0.03820210695
0.04529166667,0.03822975606
0.0453125,0.03810863942
0.04533333333,0.03810312599
0.04535416667,0.03817561641
0.045375,0.03824518993
0.04539583333,0.03834995627
0.04541666667,0.03850240633
0.0454375,0.03870054707
0.04545833333,0.03880750388
0.04547916667,0.03905646503
0.0455,0.03915468231
0.04552083333,0.03947177529
0.04554166667,0.0395475626
0.0455625,0.03965946287
0.04558333333,0.03979001194
0.04560416667,0.03983629122
0.045625,0.03988675773
0.04564583333,0.03985080495
0.04566666667,0.03995706141
0.0456875,0.03984265774
0.04570833333,0.04009936005
0.04572916667,0.040116027
0.04575,0.04025820643
0.04577083333,0.0404343158
0.04579166667,0.0406589359
0.0458125,0.0410633944
0.04583333333,0.04119922221
0.04585416667,0.04156459123
0.045875,0.04151989892
0.04589583333,0.04152186215
0.04591666667,0.04171302542
0.0459375,0.04163464904
0.04595833333,0.04154966399
0.04597916667,0.04142831266
0.046,0.04132287949
0.04602083333,0.0412363559
0.04604166667,0.04114537314
0.0460625,0.0410024263
0.04608333333,0.04108308628
0.04610416667,0.04114856943
0.046125,0.04119576886
0.04614583333,0.04125826806
0.04616666667,0.04132010788
0.0461875,0.04142328724
0.04620833333,0.04146454483
0.04622916667,0.04150474072
0.04625,0.04153927416
0.04627083333,0.04147358611
0.04629166667,0.04148735851
0.0463125,0.04144473374
0.04633333333,0.04139702395
0.04635416667,0.04131417722
0.046375,0.04130720347
0.04639583333,0.04133551568
0.04641666667,0.04144284502
0.0464375,0.04150087759
0.04645833333,0.0415474847
0.04647916667,0.04160873592
0.0465,0.04171200469
0.04652083333,0.04191467166
0.04654166667,0.04202098772
0.0465625,0.04192626476
0.04658333333,0.04189348221
0.04660416667,0.04180775583
0.046625,0.04159990698
0.04664583333,0.04146318883
0.04666666667,0.04135632515
0.0466875,0.04143896699
0.04670833333,0.04142752662
0.04672916667,0.04133947566
0.04675,0.0414666459
0.04677083333,0.04147383198
0.04679166667,0.04146223143
0.0468125,0.04143539816
0.04683333333,0.04137240723
0.04685416667,0.04143262655
0.046875,0.04137744382
0.04689583333,0.041282285
0.04691666667,0.0410480909
0.0469375,0.0409476459
0.04695833333,0.04071078449
0.04697916667,0.04062530398
0.047,0.04036194831
0.04702083333,0.04027085006
0.04704166667,0.04012260959
0.0470625,0.03991778195
0.04708333333,0.03995881602
0.04710416667,0.03984838352
0.047125,0.03982860222
0.04714583333,0.0397217162
0.04716666667,0.03967327625
0.0471875,0.03969333321
0.04720833333,0.03950011358
0.04722916667,0.03949160874
0.04725,0.03930173069
0.04727083333,0.03918708861
0.04729166667,0.03907236084
0.0473125,0.03884332627
0.04733333333,0.03873461485
0.04735416667,0.03858144209
0.047375,0.03841041774
0.04739583333,0.03824365512
0.04741666667,0.03822658211
0.0474375,0.0381972827
0.04745833333,0.03822478279
0.04747916667,0.03818497062
0.0475,0.03824626282
0.04752083333,0.0382752642
0.04754166667,0.03819258139
0.0475625,0.03816146031
0.04758333333,0.03795534
0.04760416667,0.03759151325
0.047625,0.03706298396
0.04764583333,0.03673441708
0.04766666667,0.03668197617
0.0476875,0.03629932553
0.04770833333,0.03579019755
0.04772916667,0.03565323725
0.04775,0.03575126827
0.04777083333,0.03531378508
0.04779166667,0.03500155732
0.0478125,0.03520796821
0.04783333333,0.03507271782
0.04785416667,0.03488051146
0.047875,0.03499646485
0.04789583333,0.03468785435
0.04791666667,0.03470846266
0.0479375,0.03441384062
0.04795833333,0.03404290974
0.04797916667,0.03375662118
0.048,0.0333517231
0.04802083333,0.03298859671
0.04804166667,0.03256301582
0.0480625,0.03223337233
0.04808333333,0.0320247151
0.04810416667,0.0317842029
0.048125,0.03155839816
0.04814583333,0.03142532334
0.04816666667,0.03121654131
0.0481875,0.03087723069
0.04820833333,0.03053947538
0.04822916667,0.03021163121
0.04825,0.02995160967
0.04827083333,0.02955215797
0.04829166667,0.02910810523
0.0483125,0.02856307477
0.04833333333,0.0279465802
0.04835416667,0.02737876587
0.048375,0.02680987306
0.04839583333,0.02639685012
0.04841666667,0.02591400035
0.0484375,0.02550035529
0.04845833333,0.02524466068
0.04847916667,0.0249785427
0.0485,0.02476131357
0.04852083333,0.02438139357
0.04854166667,0.02406528406
0.0485625,0.02371533774
0.04858333333,0.02337602526
0.04860416667,0.02300280705
0.048625,0.02265278995
0.04864583333,0.02229263633
0.04866666667,0.02192405425
0.0486875,0.02155047655
0.04870833333,0.02121911757
0.04872916667,0.02113370784
0.04875,0.02083705366
0.04877083333,0.02087982185
0.04879166667,0.02077098191
0.0488125,0.02049664222
0.04883333333,0.02068066783
0.04885416667,0.02041249536
0.048875,0.02063837089
0.04889583333,0.02036312781
0.04891666667,0.02054141648
0.0489375,0.02046307735
0.04895833333,0.01991415024
0.04897916667,0.01992455497
0.049,0.01982879452
0.04902083333,0.01958697848
0.04904166667,0.01938178763
0.0490625,0.01926800981
0.04908333333,0.01929537393
0.04910416667,0.01931552216
0.049125,0.01929842122
0.04914583333,0.01946141571
0.04916666667,0.01940529048
0.0491875,0.01936931908
0.04920833333,0.01937210374
0.04922916667,0.0192306377
0.04925,0.01917139068
0.04927083333,0.01886930689
0.04929166667,0.01857035235
0.0493125,0.01831111126
0.04933333333,0.01804369316
0.04935416667,0.01763903722
0.049375,0.01738592423
0.04939583333,0.01734864339
0.04941666667,0.01726106741
0.0494375,0.01719886623
0.04945833333,0.01713998429
0.04947916667,0.01713097468
0.0495,0.01723981835
0.04952083333,0.01713689789
0.04954166667,0.01691053435
0.0495625,0.01669025049
0.04958333333,0.01632454246
0.04960416667,0.01592830569
0.049625,0.0155143477
0.04964583333,0.01516215969
0.04966666667,0.01488738135
0.0496875,0.0144730797
0.04970833333,0.01417981461
0.04972916667,0.01393821649
0.04975,0.01380452607
0.04977083333,0.01362502016
0.04979166667,0.01356824674
0.0498125,0.01348835696
0.04983333333,0.01324326079
0.04985416667,0.01305519883
0.049875,0.01269383356
0.04989583333,0.01235687919
0.04991666667,0.01190263685
0.0499375,0.01162950974
0.04995833333,0.01106315479
0.04997916667,0.01079820283
0.05,0.01080337819
0.05002083333,0.01026178803
0.05004166667,0.01009143889
0.0500625,0.01014365628
0.05008333333,0.01003312226
0.05010416667,0.009953974746
0.050125,0.00986975804
0.05014583333,0.009612688795
0.05016666667,0.009479025379
0.0501875,0.009204256348
0.05020833333,0.008863766678
0.05022916667,0.008690549992
0.05025,0.008340884
0.05027083333,0.008066977374
0.05029166667,0.007725762669
0.0503125,0.007484759204
0.05033333333,0.007210893091
0.05035416667,0.006995649543
0.050375,0.006728226785
0.05039583333,0.006331345998
0.05041666667,0.006014024839
0.0504375,0.005572961643
0.05045833333,0.005275862291
0.05047916667,0.004926243797
0.0505,0.00467948243
0.05052083333,0.004373805597
0.05054166667,0.004048189614
0.0505625,0.003726652125
0.05058333333,0.00337599311
0.05060416667,0.003138924949
0.050625,0.002659958089
0.05064583333,0.00238122209
0.05066666667,0.002156743547
0.0506875,0.001946087694
0.05070833333,0.001765875961
0.05072916667,0.001613528701
0.05075,0.001617097296
0.05077083333,0.001549406676
0.05079166667,0.001537907869
0.0508125,0.001522609848
0.05083333333,0.001402956666
0.05085416667,0.001370877377
0.050875,0.001173886121
0.05089583333,0.00108571758
0.05091666667,0.0007946423721
0.0509375,0.0006999035832
0.05095833333,0.000470843428
0.05097916667,0.0002729190455
0.051,0.0001046897087
0.05102083333,-0.0001738380233
0.05104166667,-0.0002627043868
0.0510625,-0.0003850194626
0.05108333333,-0.000402844802
0.05110416667,-0.0005447183503
0.051125,-0.0006576038431
0.05114583333,-0.0007830780232
0.05116666667,-0.0007550431765
0.0511875,-0.0008141281432
0.05120833333,-0.0008633617545
0.05122916667,-0.001029856736
0.05125,-0.001215601689
0.05127083333,-0.001352573629
0.05129166667,-0.001665214077
0.0513125,-0.001858530799
0.05133333333,-0.00213313126
0.05135416667,-0.002242537681
0.051375,-0.002384229098
0.05139583333,-0.002594796941
0.05141666667,-0.002510738559
0.0514375,-0.002552433172
0.05145833333,-0.002553338883
0.05147916667,-0.002574807266
0.0515,-0.002720048884
0.05152083333,-0.002857852029
0.05154166667,-0.002958457218
0.0515625,-0.003059015144
0.05158333333,-0.00313329557
0.05160416667,-0.003285304876
0.051625,-0.003521629144
0.05164583333,-0.003776405007
0.05166666667,-0.003960467875
0.0516875,-0.004205225501
0.05170833333,-0.004369171336
0.05172916667,-0.004384020809
0.05175,-0.004529678728
0.05177083333,-0.004601115827
0.05179166667,-0.004733222071
0.0518125,-0.004978821613
0.05183333333,-0.005198181607
0.05185416667,-0.005368212704
0.051875,-0.005569215398
0.05189583333,-0.005664355122
0.05191666667,-0.00584048219
0.0519375,-0.006020763889
0.05195833333,-0.006205234211
0.05197916667,-0.006379663479
0.052,-0.006618074141
0.05202083333,-0.006681948435
0.05204166667,-0.006811084226
0.0520625,-0.006894275546
0.05208333333,-0.006936897524
0.05210416667,-0.007090971339
0.052125,-0.007104869466
0.05214583333,-0.007201474626
0.05216666667,-0.007293642499
0.0521875,-0.007282298058
0.05220833333,-0.007252351381
0.05222916667,-0.007456131279
0.05225,-0.007635666523
0.05227083333,-0.007635816932
0.05229166667,-0.007718898822
0.0523125,-0.007920437492
0.05233333333,-0.00814677123
0.05235416667,-0.008295875043
0.052375,-0.008455835283
0.05239583333,-0.008484303951
0.05241666667,-0.008472406305
0.0524375,-0.008562964387
0.05245833333,-0.008567269892
0.05247916667,-0.008592776023
0.0525,-0.00848454982
0.05252083333,-0.008511727676
0.05254166667,-0.00863492582
0.0525625,-0.008629960008
0.05258333333,-0.008799657226
0.05260416667,-0.008899122477
0.052625,-0.008907766081
0.05264583333,-0.008971893229
0.05266666667,-0.008953310549
0.0526875,-0.008974059485
0.05270833333,-0.008987032808
0.05272916667,-0.008983106352
0.05275,-0.009004268795
0.05277083333,-0.009100009687
0.05279166667,-0.009186335839
0.0528125,-0.009204288945
0.05283333333,-0.009329537861
0.05285416667,-0.009430823848
0.052875,-0.009564748034
0.05289583333,-0.009755439125
0.05291666667,-0.009950326756
0.0529375,-0.01015090011
0.05295833333,-0.01025544479
0.05297916667,-0.01044395752
0.053,-0.01062115189
0.05302083333,-0.01089364011
0.05304166667,-0.0112101445
0.0530625,-0.01138620824
0.05308333333,-0.01163419802
0.05310416667,-0.01182242297
0.053125,-0.01194173284
0.05314583333,-0.01204305515
0.05316666667,-0.01214474346
0.0531875,-0.01228742115
0.05320833333,-0.01244898792
0.05322916667,-0.01255629119
0.05325,-0.01248873863
0.05327083333,-0.01259626541
0.05329166667,-0.01251872256
0.0533125,-0.01246301271
0.05333333333,-0.01253239065
0.05335416667,-0.01248421706
0.053375,-0.01264727768
0.05339583333,-0.01258575357
0.05341666667,-0.01263995189
0.0534375,-0.01276324037
0.05345833333,-0.01274071261
0.05347916667,-0.01286155358
0.0535,-0.01301859599
0.05352083333,-0.0131802652
0.05354166667,-0.01325593702
0.0535625,-0.01347283833
0.05358333333,-0.01353577524
0.05360416667,-0.01359662693
0.053625,-0.01368049998
0.05364583333,-0.0136681702
0.05366666667,-0.01372963097
0.0536875,-0.01369395293
0.05370833333,-0.01374427136
0.05372916667,-0.01377297193
0.05375,-0.01376173273
0.05377083333,-0.01377246249
0.05379166667,-0.0137657309
0.0538125,-0.01366436575
0.05383333333,-0.01366064232
0.05385416667,-0.0137307914
0.053875,-0.01382713579
0.05389583333,-0.01390325185
0.05391666667,-0.01391597372
0.0539375,-0.01390052866
0.05395833333,-0.01385513227
0.05397916667,-0.01388115343
0.054,-0.0139488671
0.05402083333,-0.01393593941
0.05404166667,-0.01391092036
0.0540625,-0.01390794199
0.05408333333,-0.01372420974
0.05410416667,-0.0135941077
0.054125,-0.01342570875
0.05414583333,-0.01328666881
0.05416666667,-0.01322908979
0.0541875,-0.01321528666
0.05420833333,-0.0132699525
0.05422916667,-0.01343063265
0.05425,-0.01368810795
0.05427083333,-0.01389722899
0.05429166667,-0.01407107059
0.0543125,-0.01426750701
0.05433333333,-0.01445671916
0.05435416667,-0.01466177218
0.054375,-0.01479849126
0.05439583333,-0.01494753268
0.05441666667,-0.01514217816
0.0544375,-0.01527117938
0.05445833333,-0.01530849002
0.05447916667,-0.01538772509
0.0545,-0.0153701324
0.05452083333,-0.01542482339
0.05454166667,-0.01547563076
0.0545625,-0.01554374956
0.05458333333,-0.01571377926
0.05460416667,-0.01584388129
0.054625,-0.01597194746
0.05464583333,-0.01588540897
0.05466666667,-0.01608365402
0.0546875,-0.01607095823
0.05470833333,-0.01615110971
0.05472916667,-0.0160780102
0.05475,-0.01585255563
0.05477083333,-0.01611449756
0.05479166667,-0.01602595486
0.0548125,-0.01609625667
0.05483333333,-0.0160850063
0.05485416667,-0.01598844863
0.054875,-0.01614408009
0.05489583333,-0.01608745381
0.05491666667,-0.01607139222
0.0549375,-0.01619887725
0.05495833333,-0.01638325863
0.05497916667,-0.01671626605
0.055,-0.01692653075
0.05502083333,-0.01712724939
0.05504166667,-0.01741296425
0.0550625,-0.01752869599
0.05508333333,-0.01763550565
0.05510416667,-0.01761652157
0.055125,-0.01748432964
0.05514583333,-0.01752946526
0.05516666667,-0.01756809838
0.0551875,-0.01771085151
0.05520833333,-0.01792056486
0.05522916667,-0.01806201413
0.05525,-0.01830969378
0.05527083333,-0.01871154457
0.05529166667,-0.01897483505
0.0553125,-0.01922105066
0.05533333333,-0.01949381456
0.05535416667,-0.01985080168
0.055375,-0.02025260963
0.05539583333,-0.0204549022
0.05541666667,-0.02070661075
0.0554375,-0.0209707208
0.05545833333,-0.02119698562
0.05547916667,-0.02137365192
0.0555,-0.02145491354
0.05552083333,-0.02163621411
0.05554166667,-0.02184200101
0.0555625,-0.02218120545
0.05558333333,-0.0224510245
0.05560416667,-0.02271062881
0.055625,-0.02306237631
0.05564583333,-0.02323965356
0.05566666667,-0.02353444137
0.0556875,-0.02384050563
0.05570833333,-0.02391086891
0.05572916667,-0.0239262227
0.05575,-0.02384920232
0.05577083333,-0.02391992137
0.05579166667,-0.02399290539
0.0558125,-0.02422117069
0.05583333333,-0.02442185022
0.05585416667,-0.0247404594
0.055875,-0.02494696155
0.05589583333,-0.0252251979
0.05591666667,-0.02543023229
0.0559375,-0.02557282522
0.05595833333,-0.02581232972
0.05597916667,-0.02590345778
0.056,-0.0259984266
0.05602083333,-0.02604655176
0.05604166667,-0.02612475865
0.0560625,-0.0261663869
0.05608333333,-0.02608545125
0.05610416667,-0.02603662573
0.056125,-0.0260317456
0.05614583333,-0.02597910352
0.05616666667,-0.02599131316
0.0561875,-0.02592846192
0.05620833333,-0.02606990002
0.05622916667,-0.02629964985
0.05625,-0.02636731789
0.05627083333,-0.02646841109
0.05629166667,-0.02671526931
0.0563125,-0.0267839767
0.05633333333,-0.0268023815
0.05635416667,-0.02682361007
0.056375,-0.02686002292
0.05639583333,-0.02675273642
0.05641666667,-0.02652546577
0.0564375,-0.02647038735
0.05645833333,-0.02637655474
0.05647916667,-0.02628474496
0.0565,-0.0261320062
0.05652083333,-0.02610463277
0.05654166667,-0.02610950731
0.0565625,-0.0261096321
0.05658333333,-0.02614284866
0.05660416667,-0.02616795897
0.056625,-0.0263710767
0.05664583333,-0.02620516904
0.05666666667,-0.02615251206
0.0566875,-0.02598381415
0.05670833333,-0.02576031908
0.05672916667,-0.02579747699
0.05675,-0.02543951385
0.05677083333,-0.02534414083
0.05679166667,-0.0253563989
0.0568125,-0.02521830425
0.05683333333,-0.02516789362
0.05685416667,-0.02493701316
0.056875,-0.02487766556
0.05689583333,-0.02462013811
0.05691666667,-0.02457839437
0.0569375,-0.02458349988
0.05695833333,-0.024447212
0.05697916667,-0.02448054031
0.057,-0.02436792478
0.05702083333,-0.02426869795
0.05704166667,-0.02408614755
0.0570625,-0.02390770987
0.05708333333,-0.02372782491
0.05710416667,-0.02359873615
0.057125,-0.02347143181
0.05714583333,-0.02336096764
0.05716666667,-0.02329786494
0.0571875,-0.02302327752
0.05720833333,-0.02298705094
0.05722916667,-0.02288392931
0.05725,-0.02286192402
0.05727083333,-0.0229122825
0.05729166667,-0.02285341918
0.0573125,-0.02284571156
0.05733333333,-0.02281460166
0.05735416667,-0.02277479693
0.057375,-0.02274088934
0.05739583333,-0.02277507447
0.05741666667,-0.02261188626
0.0574375,-0.02242027782
0.05745833333,-0.02210089378
0.05747916667,-0.02173455246
0.0575,-0.02141714841
0.05752083333,-0.0210761074
0.05754166667,-0.02088283561
0.0575625,-0.0206724368
0.05758333333,-0.02057839558
0.05760416667,-0.02032514848
0.057625,-0.02016049251
0.05764583333,-0.02004300989
0.05766666667,-0.01971426979
0.0576875,-0.01946667768
0.05770833333,-0.01906366274
0.05772916667,-0.01874143444
0.05775,-0.01819640398
0.05777083333,-0.01767137088
0.05779166667,-0.01724543981
0.0578125,-0.01690684818
0.05783333333,-0.01694373228
0.05785416667,-0.01642719842
0.057875,-0.01609871536
0.05789583333,-0.01602643915
0.05791666667,-0.01587123424
0.0579375,-0.01545305736
0.05795833333,-0.01523927785
0.05797916667,-0.01558879111
0.058,-0.01509307604
0.05802083333,-0.0148804104
0.05804166667,-0.01441047061
0.0580625,-0.01407868136
0.05808333333,-0.01359255332
0.05810416667,-0.01288569439
0.058125,-0.01256153546
0.05814583333,-0.01229986548
0.05816666667,-0.01196380612
0.0581875,-0.01158669591
0.05820833333,-0.01135177165
0.05822916667,-0.01103559509
0.05825,-0.01092968695
0.05827083333,-0.01077872887
0.05829166667,-0.01050455961
0.0583125,-0.0102250129
0.05833333333,-0.009907081723
0.05835416667,-0.009507243522
0.058375,-0.0090712253
0.05839583333,-0.008689890616
0.05841666667,-0.00822284352
0.0584375,-0.0077614123
0.05845833333,-0.007374559995
0.05847916667,-0.007071935106
0.0585,-0.006775372662
0.05852083333,-0.006546217948
0.05854166667,-0.006307306699
0.0585625,-0.006214623805
0.05858333333,-0.006016407162
0.05860416667,-0.005761641543
0.058625,-0.005616557319
0.05864583333,-0.005414056592
0.05866666667,-0.005246865563
0.0586875,-0.00511438679
0.05870833333,-0.004722608719
0.05872916667,-0.004463126883
0.05875,-0.004095284268
0.05877083333,-0.003573600668
0.05879166667,-0.003191663418
0.0588125,-0.002780648414
0.05883333333,-0.002518421039
0.05885416667,-0.00227893889
0.058875,-0.001905278768
0.05889583333,-0.001735439058
0.05891666667,-0.001636819332
0.0589375,-0.001425600844
0.05895833333,-0.001223426312
0.05897916667,-0.0009870612994
0.059,-0.0008184183389
0.05902083333,-0.0005485753063
0.05904166667,-0.0002030105097
0.0590625,-2.092914656e-06
0.05908333333,0.0004209862091
0.05910416667,0.00106049201
0.059125,0.001222315012
0.05914583333,0.001648953883
0.05916666667,0.001688204473
0.0591875,0.002066561487
0.05920833333,0.00197019754
0.05922916667,0.001996688545
0.05925,0.002101035556
0.05927083333,0.002069559181
0.05929166667,0.002303772839
0.0593125,0.002089587972
0.05933333333,0.002227826975
0.05935416667,0.002398538869
0.059375,0.00240762555
0.05939583333,0.002638521139
0.05941666667,0.002849112963
0.0594375,0.003179004649
0.05945833333,0.003419758286
0.05947916667,0.003685550764
0.0595,0.003923961427
0.05952083333,0.004118767567
0.05954166667,0.00433914084
0.0595625,0.004470285028
0.05958333333,0.004505794495
0.05960416667,0.00454433402
0.059625,0.004573626444
0.05964583333,0.004519313574
0.05966666667,0.004468185827
0.0596875,0.004679142963
0.05970833333,0.004813208245
0.05972916667,0.005091243889
0.05975,0.005564627238
0.05977083333,0.005936331116
0.05979166667,0.006252012681
0.0598125,0.006620024331
0.05983333333,0.006947718561
0.05985416667,0.00720888935
0.059875,0.007373998873
0.05989583333,0.007441978436
0.05991666667,0.007590472698
0.0599375,0.00770857092
0.05995833333,0.008102666587
0.05997916667,0.008161634207
0.06,0.008237387054
0.06002083333,0.00880277995
0.06004166667,0.009044179693
0.0600625,0.00948501192
0.06008333333,0.009923585691
0.06010416667,0.01018168032
0.060125,0.0106445048
0.06014583333,0.01124667376
0.06016666667,0.01159168407
0.0601875,0.01194663811
0.06020833333,0.01229140628
0.06022916667,0.01246846747
0.06025,0.01275760774
0.06027083333,0.01290162746
0.06029166667,0.0130562624
0.0603125,0.01345871855
0.06033333333,0.01372346655
0.06035416667,0.01403780468
0.060375,0.01428703591
0.06039583333,0.0145858014
0.06041666667,0.01489713229
0.0604375,0.01518366858
0.06045833333,0.01558998413
0.06047916667,0.01599646546
0.0605,0.01640115306
0.06052083333,0.01667685993
0.06054166667,0.01701769792
0.0605625,0.01741877384
0.06058333333,0.01773053408
0.06060416667,0.0181543082
0.060625,0.01853582822
0.06064583333,0.01891132258
0.06066666667,0.0192154441
0.0606875,0.01944622211
0.06070833333,0.01986565441
0.06072916667,0.02017429844
0.06075,0.02054933831
0.06077083333,0.02094204724
0.06079166667,0.02136153355
0.0608125,0.02175797708
0.06083333333,0.02205068991
0.06085416667,0.02240180969
0.060875,0.02258825675
0.06089583333,0.02281935513
0.06091666667,0.02303158306
0.0609375,0.02319879271
0.06095833333,0.02334417962
0.06097916667,0.02360332385
0.061,0.02392324246
0.06102083333,0.02407801524
0.06104166667,0.02442841046
0.0610625,0.02468340285
0.06108333333,0.02493081056
0.06110416667,0.0252076257
0.061125,0.02541689202
0.06114583333,0.02570847049
0.06116666667,0.02602228336
0.0611875,0.0262683332
0.06120833333,0.02646505646
0.06122916667,0.02667541802
0.06125,0.02680892311
0.06127083333,0.02685533278
0.06129166667,0.02688801102
0.0613125,0.02692675218
0.06133333333,0.02694178186
0.06135416667,0.02696531266
0.061375,0.02708179317
0.06139583333,0.02717409469
0.06141666667,0.02717086487
0.0614375,0.02723231167
0.06145833333,0.0273030363
0.06147916667,0.02746408619
0.0615,0.02751639299
0.06152083333,0.02762903087
0.06154166667,0.02785555832
0.0615625,0.02801610157
0.06158333333,0.02824557759
0.06160416667,0.02836252563
0.061625,0.02848033607
0.06164583333,0.02853897586
0.06166666667,0.02858149447
0.0616875,0.02866809815
0.06170833333,0.02866224386
0.06172916667,0.02868015319
0.06175,0.02862089872
0.06177083333,0.02862045728
0.06179166667,0.02861617878
0.0618125,0.02882342413
0.06183333333,0.02906172164
0.06185416667,0.02919918485
0.061875,0.02936301008
0.06189583333,0.02953908406
0.06191666667,0.02970803902
0.0619375,0.02983743511
0.06195833333,0.02993011661
0.06197916667,0.03003402241
0.062,0.03001870215
0.06202083333,0.03005573526
0.06204166667,0.03010711819
0.0620625,0.0301911924
0.06208333333,0.03028362803
0.06210416667,0.03044385836
0.062125,0.03060877696
0.06214583333,0.03072394803
0.06216666667,0.03087787889
0.0621875,0.03101051413
0.06220833333,0.03108311258
0.06222916667,0.03101859801
0.06225,0.03105873242
0.06227083333,0.03102251887
0.06229166667,0.03093187511
0.0623125,0.03084838577
0.06233333333,0.03067070246
0.06235416667,0.03052550368
0.062375,0.03037165292
0.06239583333,0.03026492521
0.06241666667,0.03021705151
0.0624375,0.03013454378
0.06245833333,0.03013954684
0.06247916667,0.03015419468
0.0625,0.03026651405
0.06252083333,0.03031538427
0.06254166667,0.03022607043
0.0625625,0.03022937104
0.06258333333,0.03024265729
0.06260416667,0.03012457676
0.062625,0.02999341302
0.06264583333,0.02995756641
0.06266666667,0.02986317873
0.0626875,0.02975273319
0.06270833333,0.02965689823
0.06272916667,0.02955599688
0.06275,0.0295437593
0.06277083333,0.0296028778
0.06279166667,0.02958318964
0.0628125,0.02960666269
0.06283333333,0.02977256477
0.06285416667,0.02990306541
0.062875,0.03009322472
0.06289583333,0.03040718846
0.06291666667,0.03051869944
0.0629375,0.03062924556
0.06295833333,0.03070134856
0.06297916667,0.03074560687
0.063,0.03078254126
0.06302083333,0.03088989481
0.06304166667,0.03089211509
0.0630625,0.03092605807
0.06308333333,0.03097460791
0.06310416667,0.0310987588
0.063125,0.03136471659
0.06314583333,0.03144967183
0.06316666667,0.031691093
0.0631875,0.03197540715
0.06320833333,0.03213119879
0.06322916667,0.03228593245
0.06325,0.03228307888
0.06327083333,0.03236577287
0.06329166667,0.0324578248
0.0633125,0.03245591745
0.06333333333,0.03254523501
0.06335416667,0.03255952522
0.063375,0.03257513419
0.06339583333,0.03249640763
0.06341666667,0.03238140047
0.0634375,0.03231925145
0.06345833333,0.03233853355
0.06347916667,0.03242917359
0.0635,0.03245951608
0.06352083333,0.03253002837
0.06354166667,0.03257686645
0.0635625,0.03263780475
0.06358333333,0.03274353594
0.06360416667,0.03270817176
0.063625,0.03268121555
0.06364583333,0.03262842819
0.06366666667,0.03255186602
0.0636875,0.03251865134
0.06370833333,0.03244000301
0.06372916667,0.03245613724
0.06375,0.0325036943
0.06377083333,0.0325338468
0.06379166667,0.03267429769
0.0638125,0.03280926123
0.06383333333,0.03300149366
0.06385416667,0.03310790658
0.063875,0.03322475031
0.06389583333,0.03332348913
0.06391666667,0.033353623
0.0639375,0.03339571133
0.06395833333,0.03339421004
0.06397916667,0.03336613625
0.064,0.03331685066
0.06402083333,0.03323041648
0.06404166667,0.03319442645
0.0640625,0.03320147842
0.06408333333,0.03318240494
0.06410416667,0.03333334625
0.064125,0.03350192308
0.06414583333,0.03365440294
0.06416666667,0.03388917074
0.0641875,0.03407802433
0.06420833333,0.03424991295
0.06422916667,0.0343580693
0.06425,0.0344209373
0.06427083333,0.03444941714
0.06429166667,0.03445518389
0.0643125,0.03437782079
0.06433333333,0.03424611315
0.06435416667,0.03421873972
0.064375,0.03410960734
0.06439583333,0.03406327218
0.06441666667,0.03417721018
0.0644375,0.03425719216
0.06445833333,0.03444491327
0.06447916667,0.03447939828
0.0645,0.03474695608
0.06452083333,0.03496182337
0.06454166667,0.03517094627
0.0645625,0.03537805751
0.06458333333,0.03542970493
0.06460416667,0.03549404442
0.064625,0.03534241393
0.06464583333,0.03525482491
0.06466666667,0.03526663408
0.0646875,0.03511125222
0.06470833333,0.03518810123
0.06472916667,0.03520298004
0.06475,0.0352419354
0.06477083333,0.03530470282
0.06479166667,0.03537231311
0.0648125,0.03545655683
0.06483333333,0.03562144563
0.06485416667,0.03588031977
0.064875,0.03599061444
0.06489583333,0.03613241762
0.06491666667,0.03623239323
0.0649375,0.03629846126
0.06495833333,0.03624456376
0.06497916667,0.03609303012
0.065,0.03613934293
0.06502083333,0.03609565273
0.06504166667,0.03598029539
0.0650625,0.03596786782
0.06508333333,0.03595604748
0.06510416667,0.03602272272
0.065125,0.03608700633
0.06514583333,0.03618941829
0.06516666667,0.0364184007
0.0651875,0.03655958548
0.06520833333,0.03673681617
0.06522916667,0.03685134649
0.06525,0.0370114781
0.06527083333,0.03709428757
0.06529166667,0.03707718104
0.0653125,0.0372136943
0.06533333333,0.03721639141
0.06535416667,0.03723873943
0.065375,0.03727172315
0.06539583333,0.03733520582
0.06541666667,0.03746476397
0.0654375,0.03760263696
0.06545833333,0.03791134804
0.06547916667,0.03814332932
0.0655,0.03844384849
0.06552083333,0.038677264
0.06554166667,0.03885207698
0.0655625,0.03915451467
0.06558333333,0.03935736045
0.06560416667,0.03955346346
0.065625,0.03969485685
0.06564583333,0.03976039216
0.06566666667,0.03985832632
0.0656875,0.03994431347
0.06570833333,0.03998828679
0.06572916667,0.04005245864
0.06575,0.04017496109
0.06577083333,0.04030510411
0.06579166667,0.04037024453
0.0658125,0.04056157544
0.06583333333,0.04076235741
0.06585416667,0.04083443061
0.065875,0.04097570479
0.06589583333,0.0410630554
0.06591666667,0.04118636623
0.0659375,0.04122562334
0.06595833333,0.04114039987
0.06597916667,0.04115074873
0.066,0.0409941338
0.06602083333,0.0408320874
0.06604166667,0.04077519476
0.0660625,0.04052459449
0.06608333333,0.04048948735
0.06610416667,0.04048433155
0.066125,0.04045275599
0.06614583333,0.0404860042
0.06616666667,0.04049944505
0.0661875,0.04053772986
0.06620833333,0.04057689011
0.06622916667,0.04058626667
0.06625,0.04062896222
0.06627083333,0.04058387503
0.06629166667,0.04052793235
0.0663125,0.04049348086
0.06633333333,0.04031798989
0.06635416667,0.04019529
0.066375,0.03997492045
0.06639583333,0.03984838352
0.06641666667,0.03976037353
0.0664375,0.03973605484
0.06645833333,0.03984616697
0.06647916667,0.03978177905
0.0665,0.03988981247
0.06652083333,0.03995972499
0.06654166667,0.039980039
0.0665625,0.0401494801
0.06658333333,0.04007705674
0.06660416667,0.04008116201
0.066625,0.03997591883
0.06664583333,0.03966073692
0.06666666667,0.03928922862
0.0666875,0.03901735321
0.06670833333,0.03874760121
0.06672916667,0.03844867274
0.06675,0.0382514149
0.06677083333,0.03811569139
0.06679166667,0.03806250915
0.0668125,0.03780569509
0.06683333333,0.03775985539
0.06685416667,0.03772703558
0.066875,0.0376620777
0.06689583333,0.03770884126
0.06691666667,0.03755978122
0.0669375,0.03745217621
0.06695833333,0.03730151802
0.06697916667,0.03703841195
0.067,0.03684474528
0.06702083333,0.03652124107
0.06704166667,0.0363278538
0.0670625,0.03613072261
0.06708333333,0.03590946645
0.06710416667,0.03585606068
0.067125,0.03577147424
0.06714583333,0.03574005514
0.06716666667,0.03575044498
0.0671875,0.03580962121
0.06720833333,0.03577210009
0.06722916667,0.03573991358
0.06725,0.03576999903
0.06727083333,0.03548653424
0.06729166667,0.03544735909
0.0673125,0.03510138765
0.06733333333,0.03478382528
0.06735416667,0.03475032747
0.067375,0.03410430253
0.06739583333,0.03404788673
0.06741666667,0.03365901113
0.0674375,0.03364465013
0.06745833333,0.03360730037
0.06747916667,0.03331980854
0.0675,0.03344148397
0.06752083333,0.03341240436
0.06754166667,0.03348168731
0.0675625,0.03358803689
0.06758333333,0.03368664533
0.06760416667,0.03375310823
0.067625,0.03373963758
0.06764583333,0.03361370042
0.06766666667,0.03340878338
0.0676875,0.03321700916
0.06770833333,0.0328829512
0.06772916667,0.03267119825
0.06775,0.03225312382
0.06777083333,0.03201828152
0.06779166667,0.03181782365
0.0678125,0.03151901066
0.06783333333,0.0314530544
0.06785416667,0.03124456666
0.067875,0.03106011637
0.06789583333,0.03087564558
0.06791666667,0.03068776429
0.0679375,0.03048632853
0.06795833333,0.03022862226
0.06797916667,0.02998291329
0.068,0.02962678671
0.06802083333,0.02926358953
0.06804166667,0.02879266441
0.0680625,0.02832778543
0.06808333333,0.02792577259
0.06810416667,0.02763073333
0.068125,0.02732505091
0.06814583333,0.02722395025
0.06816666667,0.02714391053
0.0681875,0.02708091028
0.06820833333,0.02714117616
0.06822916667,0.02698280104
0.06825,0.0268371664
0.06827083333,0.02674637362
0.06829166667,0.02652825043
0.0683125,0.02631392889
0.06833333333,0.02605174296
0.06835416667,0.02580354922
0.068375,0.02533839457
0.06839583333,0.02492475137
0.06841666667,0.0246829167
0.0684375,0.02420920879
0.06845833333,0.02370702848
0.06847916667,0.02348566614
0.0685,0.0232067164
0.06852083333,0.02304335497
0.06854166667,0.02286866121
0.0685625,0.0225170739
0.06858333333,0.02243274078
0.06860416667,0.02214078233
0.068625,0.0219000373
0.06864583333,0.02141716704
0.06866666667,0.02118324116
0.0686875,0.02082580701
0.06870833333,0.02045897394
0.06872916667,0.02018299699
0.06875,0.01988228597
0.06877083333,0.01967598312
0.06879166667,0.01952937059
0.0688125,0.01944842376
0.06883333333,0.01938155107
0.06885416667,0.01929059625
0.068875,0.0191902481
0.06889583333,0.0190994963
0.06891666667,0.01904962212
0.0689375,0.01890075393
0.06895833333,0.01885479875
0.06897916667,0.01868189499
0.069,0.01839349605
0.06902083333,0.01807781681
0.06904166667,0.01775898226
0.0690625,0.01738883741
0.06908333333,0.01703361422
0.06910416667,0.01681431569
0.069125,0.01659198105
0.06914583333,0.01639241911
0.06916666667,0.0162035916
0.0691875,0.01603405178
0.06920833333,0.01588332467
0.06922916667,0.01566932164
0.06925,0.0154034039
0.06927083333,0.01508506108
0.06929166667,0.01479084138
0.0693125,0.01447244268
0.06933333333,0.01407571882
0.06935416667,0.0136101963
0.069375,0.0133041814
0.06939583333,0.01292209513
0.06941666667,0.01256653573
0.0694375,0.01234136801
0.06945833333,0.01212986372
0.06947916667,0.01198654622
0.0695,0.01191898808
0.06952083333,0.01194691379
0.06954166667,0.01200385392
0.0695625,0.01203425601
0.06958333333,0.01199064776
0.06960416667,0.01201609429
0.069625,0.01198264956
0.06964583333,0.01191567071
0.06966666667,0.01176756155
0.0696875,0.01158545073
0.06970833333,0.01138174161
0.06972916667,0.01108194515
0.06975,0.01088412944
0.06977083333,0.01066833176
0.06979166667,0.01066081878
0.0698125,0.0105036702
0.06983333333,0.01041058637
0.06985416667,0.01054310147
0.069875,0.01043102331
0.06989583333,0.01038790587
0.06991666667,0.01003258862
0.0699375,0.009998494759
0.06995833333,0.009717460722
0.06997916667,0.009427012876
0.07,0.009264935739
0.07002083333,0.008737011813
0.07004166667,0.008443435654
0.0700625,0.008084555157
0.07008333333,0.007653800305
0.07010416667,0.007374072913
0.070125,0.007098400034
0.07014583333,0.006859748624
0.07016666667,0.006601685192
0.0701875,0.006393854041
0.07020833333,0.006231544074
0.07022916667,0.006097854581
0.07025,0.005904914811
0.07027083333,0.005760425702
0.07029166667,0.005647176411
0.0703125,0.005454462487
0.07033333333,0.00522649847
0.07035416667,0.005013582762
0.070375,0.004693796858
0.07039583333,0.004412242677
0.07041666667,0.004155854229
0.0704375,0.003748128889
0.07045833333,0.003446303774
0.07047916667,0.003096119268
0.0705,0.002810427221
0.07052083333,0.002566265175
0.07054166667,0.002260847483
0.0705625,0.001999702305
0.07058333333,0.001620025025
0.07060416667,0.001249136752
0.070625,0.000941181439
0.07064583333,0.0005890455213
0.07066666667,0.0002503844444
0.0706875,-8.420384984e-05
0.07070833333,-0.0004086370463
0.07072916667,-0.000817849359
0.07075,-0.001196800848
0.07077083333,-0.001587997889
0.07079166667,-0.002070917748
0.0708125,-0.002434854396
0.07083333333,-0.002780537354
0.07085416667,-0.003095488064
0.070875,-0.003327427432
0.07089583333,-0.003663169919
0.07091666667,-0.003897445742
0.0709375,-0.004095936194
0.07095833333,-0.004395865835
0.07097916667,-0.004628194496
0.071,-0.004992462695
0.07102083333,-0.005273996387
0.07104166667,-0.00558200758
0.0710625,-0.005940114614
0.07108333333,-0.006265370641
0.07110416667,-0.006590933073
0.071125,-0.006825143471
0.07114583333,-0.007245663553
0.07116666667,-0.007643277757
0.0711875,-0.007940135896
0.07120833333,-0.008167371154
0.07122916667,-0.008327702992
0.07125,-0.008527769707
0.07127083333,-0.008682636544
0.07129166667,-0.008843832649
0.0713125,-0.009048301727
0.07133333333,-0.009313990362
0.07135416667,-0.009627060965
0.071375,-0.009900034405
0.07139583333,-0.01012917608
0.07141666667,-0.01044984441
0.0714375,-0.01085530315
0.07145833333,-0.01124056894
0.07147916667,-0.01159529667
0.0715,-0.01194885187
0.07152083333,-0.01223432273
0.07154166667,-0.01249251142
0.0715625,-0.01268266048
0.07158333333,-0.0128492061
0.07160416667,-0.01309212297
0.071625,-0.01324732509
0.07164583333,-0.01342268102
0.07166666667,-0.01374841016
0.0716875,-0.01396328676
0.07170833333,-0.01423675288
0.07172916667,-0.01447961014
0.07175,-0.01479628403
0.07177083333,-0.0151272472
0.07179166667,-0.01533134095
0.0718125,-0.01559763309
0.07183333333,-0.01575781778
0.07185416667,-0.01599850692
0.071875,-0.01617619023
0.07189583333,-0.0163630601
0.07191666667,-0.01658384502
0.0719375,-0.0167046506
0.07195833333,-0.0168401245
0.07197916667,-0.01699350029
0.072,-0.01716911606
0.07202083333,-0.01731346548
0.07204166667,-0.01752620563
0.0720625,-0.01778333634
0.07208333333,-0.01804485917
0.07210416667,-0.01834269054
0.072125,-0.01859650761
0.07214583333,-0.01880931295
0.07216666667,-0.01899062842
0.0721875,-0.01914351992
0.07220833333,-0.01922242716
0.07222916667,-0.01926568151
0.07225,-0.01936565526
0.07227083333,-0.01934172772
0.07229166667,-0.01937763952
0.0723125,-0.01939001866
0.07233333333,-0.01939417794
0.07235416667,-0.01957172714
0.072375,-0.01967503875
0.07239583333,-0.01981529593
0.07241666667,-0.01992007159
0.0724375,-0.02009456977
0.07245833333,-0.0203321483
0.07247916667,-0.02049383149
0.0725,-0.02066819556
0.07252083333,-0.02073963173
0.07254166667,-0.02084048279
0.0725625,-0.02081556991
0.07258333333,-0.02076406963
0.07260416667,-0.02072009631
0.072625,-0.02063882723
0.07264583333,-0.02071776427
0.07266666667,-0.0207641907
0.0726875,-0.02085109614
0.07270833333,-0.0209580455
0.07272916667,-0.02104026824
0.07275,-0.02116250619
0.07277083333,-0.02130316757
0.07279166667,-0.02144690976
0.0728125,-0.02158121392
0.07283333333,-0.02177911624
0.07285416667,-0.02196564339
0.072875,-0.0220710393
0.07289583333,-0.02220247872
0.07291666667,-0.0222564321
0.0729375,-0.022280287
0.07295833333,-0.0223145932
0.07297916667,-0.02242541686
0.073,-0.02248620801
0.07302083333,-0.0225531701
0.07304166667,-0.0226446297
0.0730625,-0.02276909351
0.07308333333,-0.02296943963
0.07310416667,-0.02309883572
0.073125,-0.02332100458
0.07314583333,-0.02352108248
0.07316666667,-0.02367669344
0.0731875,-0.02382184751
0.07320833333,-0.0238555409
0.07322916667,-0.02390131168
0.07325,-0.02392727509
0.07327083333,-0.02397264354
0.07329166667,-0.02391769364
0.0733125,-0.0238871295
0.07333333333,-0.02390198223
0.07335416667,-0.02389653586
0.073375,-0.02383026667
0.07339583333,-0.02379718795
0.07341666667,-0.0238005463
0.0734375,-0.02377024293
0.07345833333,-0.02377516963
0.07347916667,-0.02372283489
0.0735,-0.02366751432
0.07352083333,-0.02357450873
0.07354166667,-0.02347522415
0.0735625,-0.02337485924
0.07358333333,-0.02319916897
0.07360416667,-0.02301310375
0.073625,-0.02283456735
0.07364583333,-0.02270886861
0.07366666667,-0.02260969765
0.0736875,-0.02256160788
0.07370833333,-0.02252839319
0.07372916667,-0.02257907391
0.07375,-0.02264609747
0.07377083333,-0.02271846682
0.07379166667,-0.02276255749
0.0738125,-0.02282920666
0.07383333333,-0.02296275645
0.07385416667,-0.02298239619
0.073875,-0.02299975976
0.07389583333,-0.02301208675
0.07391666667,-0.02294427343
0.0739375,-0.02285897732
0.07395833333,-0.02278032526
0.07397916667,-0.02272746339
0.074,-0.02266532183
0.07402083333,-0.02276648022
0.07404166667,-0.02283426933
0.0740625,-0.0228043627
0.07408333333,-0.02293696813
0.07410416667,-0.02301266976
0.074125,-0.02314378321
0.07414583333,-0.02314754948
0.07416666667,-0.02308283374
0.0741875,-0.02307603508
0.07420833333,-0.02295470238
0.07422916667,-0.02298044227
0.07425,-0.02289345674
0.07427083333,-0.02256758139
0.07429166667,-0.02244691364
0.0743125,-0.02228236943
0.07433333333,-0.02215048857
0.07435416667,-0.02216946334
0.074375,-0.02211663872
0.07439583333,-0.02221400477
0.07441666667,-0.02232549526
0.0744375,-0.02243721485
0.07445833333,-0.02263250574
0.07447916667,-0.02277052216
0.0745,-0.02282199822
0.07452083333,-0.02283276245
0.07454166667,-0.02287430502
0.0745625,-0.02282322571
0.07458333333,-0.02274451405
0.07460416667,-0.02265404165
0.074625,-0.02255965769
0.07464583333,-0.02245930582
0.07466666667,-0.0224051103
0.0746875,-0.0223995354
0.07470833333,-0.02239846438
0.07472916667,-0.02244995348
0.07475,-0.02256151475
0.07477083333,-0.02265599556
0.07479166667,-0.02274317108
0.0748125,-0.02283570729
0.07483333333,-0.02290132642
0.07485416667,-0.02286914364
0.074875,-0.02287505381
0.07489583333,-0.0228120815
0.07491666667,-0.02265742049
0.0749375,-0.02258904278
0.07495833333,-0.02245577425
0.07497916667,-0.02244420163
0.075,-0.02245743759
0.07502083333,-0.02247920632
0.07504166667,-0.02261530608
0.0750625,-0.02266673185
0.07508333333,-0.02286309004
0.07510416667,-0.02304203063
0.075125,-0.02337346971
0.07514583333,-0.02371998504
0.07516666667,-0.02393069677
0.0751875,-0.02436449751
0.07520833333,-0.02454228699
0.07522916667,-0.02467316203
0.07525,-0.0248529315
0.07527083333,-0.02489843033
0.07529166667,-0.02512525395
0.0753125,-0.02520362288
0.07533333333,-0.02534075454
0.07535416667,-0.02545296587
0.075375,-0.02562799491
0.07539583333,-0.02584207803
0.07541666667,-0.02597794682
0.0754375,-0.02639794908
0.07545833333,-0.02655771002
0.07547916667,-0.02677947655
0.0755,-0.02702325769
0.07552083333,-0.02716270462
0.07554166667,-0.02722574957
0.0755625,-0.02715026215
0.07558333333,-0.02715095505
0.07560416667,-0.02715163678
0.075625,-0.02706283517
0.07564583333,-0.02705988474
0.07566666667,-0.02705177292
0.0756875,-0.02704397961
0.07570833333,-0.02705474012
0.07572916667,-0.02705951594
0.07575,-0.02712345682
0.07577083333,-0.02723948099
0.07579166667,-0.0273416359
0.0758125,-0.02748862654
0.07583333333,-0.02761744149
0.07585416667,-0.02763029374
0.075875,-0.02769357711
0.07589583333,-0.02764497511
0.07591666667,-0.0275686346
0.0759375,-0.02753724344
0.07595833333,-0.02744311094
0.07597916667,-0.02736327052
0.076,-0.0272824131
0.07602083333,-0.02728069015
0.07604166667,-0.02727485076
0.0760625,-0.02723393217
0.07608333333,-0.0273519773
0.07610416667,-0.02742037177
0.076125,-0.02764415368
0.07614583333,-0.02778395265
0.07616666667,-0.02787488885
0.0761875,-0.02806809172
0.07620833333,-0.0279476624
0.07622916667,-0.02807660773
0.07625,-0.02796032466
0.07627083333,-0.02774461731
0.07629166667,-0.02786720172
0.0763125,-0.02775077522
0.07633333333,-0.02770664543
0.07635416667,-0.02781098709
0.076375,-0.02788481303
0.07639583333,-0.02797631547
0.07641666667,-0.02806683257
0.0764375,-0.02812732011
0.07645833333,-0.02835850231
0.07647916667,-0.02848625369
0.0765,-0.02850543149
0.07652083333,-0.02867128514
0.07654166667,-0.02868941426
0.0765625,-0.02876849845
0.07658333333,-0.02870331146
0.07660416667,-0.02859566733
0.076625,-0.02857792564
0.07664583333,-0.02843601443
0.07666666667,-0.02833924629
0.0766875,-0.02825122885
0.07670833333,-0.02816577815
0.07672916667,-0.02809895948
0.07675,-0.02807653323
0.07677083333,-0.02812924422
0.07679166667,-0.02824213915
0.0768125,-0.02838571183
0.07683333333,-0.02834521979
0.07685416667,-0.02835055068
0.076875,-0.02837820351
0.07689583333,-0.02837800235
0.07691666667,-0.0282722339
0.0769375,-0.02814242244
0.07695833333,-0.02814837173
0.07697916667,-0.02802963369
0.077,-0.02797925472
0.07702083333,-0.02788821422
0.07704166667,-0.027794661
0.0770625,-0.02779147029
0.07708333333,-0.02774491347
0.07710416667,-0.02765900455
0.077125,-0.02757995389
0.07714583333,-0.02752115577
0.07716666667,-0.02743364312
0.0771875,-0.02736297622
0.07720833333,-0.02723981068
0.07722916667,-0.02718626522
0.07725,-0.02698482759
0.07727083333,-0.02673551068
0.07729166667,-0.02657695115
0.0773125,-0.02625767142
0.07733333333,-0.02620607428
0.07735416667,-0.02589828894
0.077375,-0.02571785264
0.07739583333,-0.02561984397
0.07741666667,-0.02517059445
0.0774375,-0.02504315041
0.07745833333,-0.0246558357
0.07747916667,-0.02453628927
0.0775,-0.02436809987
0.07752083333,-0.02403338626
0.07754166667,-0.02397828549
0.0775625,-0.02369482815
0.07758333333,-0.0232634265
0.07760416667,-0.02283156104
0.077625,-0.02251286805
0.07764583333,-0.02221491188
0.07766666667,-0.0218631383
0.0776875,-0.02153821848
0.07770833333,-0.02112461999
0.07772916667,-0.02090130374
0.07775,-0.02056810632
0.07777083333,-0.02026630566
0.07779166667,-0.02010813355
0.0778125,-0.01985370554
0.07783333333,-0.01977906376
0.07785416667,-0.01957450807
0.077875,-0.01929995231
0.07789583333,-0.01906115375
0.07791666667,-0.0186820589
0.0779375,-0.01840697043
0.07795833333,-0.01803444326
0.07797916667,-0.01763611287
0.078,-0.01721583679
0.07802083333,-0.01676109061
0.07804166667,-0.01633379422
0.0780625,-0.01585931145
0.07808333333,-0.01548463199
0.07810416667,-0.01516785473
0.078125,-0.01486130804
0.07814583333,-0.01460801251
0.07816666667,-0.01440875605
0.0781875,-0.01419642102
0.07820833333,-0.01408166625
0.07822916667,-0.0137902163
0.07825,-0.01352457795
0.07827083333,-0.01319077704
0.07829166667,-0.01277986448
0.0783125,-0.01256144699
0.07833333333,-0.01210539788
0.07835416667,-0.01206972077
0.078375,-0.01160742715
0.07839583333,-0.01104325056
0.07841666667,-0.01100709382
0.0784375,-0.01051401254
0.07845833333,-0.01064086892
0.07847916667,-0.01053497661
0.0785,-0.01043100562
0.07852083333,-0.01037324034
0.07854166667,-0.009905667976
0.0785625,-0.009793718345
0.07858333333,-0.009311804548
0.07860416667,-0.008913632482
0.078625,-0.008407610469
0.07864583333,-0.007880888879
0.07866666667,-0.007587141357
0.0786875,-0.007096520625
0.07870833333,-0.006841631141
0.07872916667,-0.006548347883
0.07875,-0.006374019664
0.07877083333,-0.006283858791
0.07879166667,-0.006168182939
0.0788125,-0.00614228379
0.07883333333,-0.0060529029
0.07885416667,-0.006023060996
0.078875,-0.005925983191
0.07889583333,-0.005738613196
0.07891666667,-0.005472198594
0.0789375,-0.00522421021
0.07895833333,-0.004903778434
0.07897916667,-0.004587506875
0.079,-0.004395539872
0.07902083333,-0.00414492609
0.07904166667,-0.003987616394
0.0790625,-0.00374406809
0.07908333333,-0.003516814206
0.07910416667,-0.003358014859
0.079125,-0.003204659792
0.07914583333,-0.003106312361
0.07916666667,-0.002943338826
0.0791875,-0.00279758242
0.07920833333,-0.002573845675
0.07922916667,-0.00231031049
0.07925,-0.00206773798
0.07927083333,-0.001811375841
0.07929166667,-0.001527034212
0.0793125,-0.001164112124
0.07933333333,-0.0008923524292
0.07935416667,-0.0006616689498
0.079375,-0.0004667596659
0.07939583333,-0.000350552029
0.07941666667,-0.0001874091104
0.0794375,-0.0001446901588
0.07945833333,-0.0001292473171
0.07947916667,-7.546052802e-05
0.0795,-0.0001569004962
0.07952083333,-0.0001603355631
0.07954166667,-0.0002472484484
0.0795625,-0.0002857949585
0.07958333333,-0.0002205156488
0.07960416667,-0.0001699669519
0.079625,6.392574869e-05
0.07964583333,0.000209921971
0.07966666667,0.0005087129539
0.0796875,0.0007997290231
0.07970833333,0.0009860571008
0.07972916667,0.001273835427
0.07975,0.001422293717
0.07977083333,0.001805621199
0.07979166667,0.001645456068
0.0798125,0.001857601106
0.07983333333,0.002095814794
0.07985416667,0.002166021615
0.079875,0.002727431478
0.07989583333,0.002795096952
0.07991666667,0.003117599059
0.0799375,0.003442452988
0.07995833333,0.003812144976
0.07997916667,0.004166628234
0.08,0.004358849488
0.08002083333,0.004732304718
0.08004166667,0.004970579408
0.0800625,0.005229756236
0.08008333333,0.005386526231
0.08010416667,0.005530748051
0.080125,0.005701942369
0.08014583333,0.005795164965
0.08016666667,0.005894384347
0.0801875,0.005973469
0.08020833333,0.006095300429
0.08022916667,0.006216313224
0.08025,0.006343812682
0.08027083333,0.006559980568
0.08029166667,0.006795482244
0.0803125,0.006916774902
0.08033333333,0.007164881565
0.08035416667,0.007393900305
0.080375,0.007537024561
0.08039583333,0.007773986552
0.08041666667,0.007953070104
0.0804375,0.008145329542
0.08045833333,0.008247026242
0.08047916667,0.00841144938
0.0805,0.008554407395
0.08052083333,0.008700994775
0.08054166667,0.008952092379
0.0805625,0.009123480879
0.08058333333,0.009395074099
0.08060416667,0.009607769549
0.080625,0.009798758663
0.08064583333,0.01001576707
0.08066666667,0.01017099153
0.0806875,0.01034493092
0.08070833333,0.0104597602
0.08072916667,0.01058815233
0.08075,0.01072690357
0.08077083333,0.01086328458
0.08079166667,0.01096839923
0.0808125,0.01105674356
0.08083333333,0.01111691818
0.08085416667,0.0112092169
0.080875,0.01133483648
0.08089583333,0.01135266107
0.08091666667,0.01146680675
0.0809375,0.01165303122
0.08095833333,0.01182376407
0.08097916667,0.01200765464
0.081,0.01214494836
0.08102083333,0.01234849449
0.08104166667,0.01241769362
0.0810625,0.01252545696
0.08108333333,0.0126256058
0.08110416667,0.01261938084
0.081125,0.01277875341
0.08114583333,0.01283398271
0.08116666667,0.01293032337
0.0811875,0.01314105
0.08120833333,0.01321008243
0.08122916667,0.01338057406
0.08125,0.01355938148
0.08127083333,0.01374350768
0.08129166667,0.01401189808
0.0813125,0.01421317458
0.08133333333,0.0143891545
0.08135416667,0.01453907974
0.081375,0.01465011016
0.08139583333,0.01473058108
0.08141666667,0.01484174281
0.0814375,0.0149726579
0.08145833333,0.01514941826
0.08147916667,0.01530267019
0.0815,0.01550018229
0.08152083333,0.01570319198
0.08154166667,0.015831016
0.0815625,0.01607981697
0.08158333333,0.01626446843
0.08160416667,0.01644679531
0.081625,0.01669393294
0.08164583333,0.0167931933
0.08166666667,0.01693095453
0.0816875,0.0170046594
0.08170833333,0.01706685312
0.08172916667,0.01718694158
0.08175,0.01725458726
0.08177083333,0.01734017208
0.08179166667,0.01737096533
0.0818125,0.01741628535
0.08183333333,0.01747565158
0.08185416667,0.01760447398
0.081875,0.01782279089
0.08189583333,0.01793562807
0.08191666667,0.01809494756
0.0819375,0.01819631457
0.08195833333,0.01827430166
0.08197916667,0.0184106119
0.082,0.01845414564
0.08202083333,0.01851915941
0.08204166667,0.01858367398
0.0820625,0.01861772314
0.08208333333,0.01862273924
0.08210416667,0.018720733
0.082125,0.0187210422
0.08214583333,0.01875776425
0.08216666667,0.01887547597
0.0821875,0.01895032823
0.08220833333,0.01906459592
0.08222916667,0.01912402548
0.08225,0.01921608858
0.08227083333,0.01934151538
0.08229166667,0.01945458166
0.0823125,0.01953279227
0.08233333333,0.01957075484
0.08235416667,0.01960304193
0.082375,0.01960635372
0.08239583333,0.01963157579
0.08241666667,0.0196920298
0.0824375,0.01976164244
0.08245833333,0.01984380558
0.08247916667,0.01990831085
0.0825,0.01998555474
0.08252083333,0.02008526213
0.08254166667,0.02012556605
0.0825625,0.02018634602
0.08258333333,0.02020506002
0.08260416667,0.0202419553
0.082625,0.02027950436
0.08264583333,0.02031581476
0.08266666667,0.02043769695
0.0826875,0.02047623135
0.08270833333,0.02059514262
0.08272916667,0.02068868279
0.08275,0.02074067108
0.08277083333,0.02082785591
0.08279166667,0.02090341225
0.0828125,0.02106540091
0.08283333333,0.0212189164
0.08285416667,0.02142100595
0.082875,0.02158602886
0.08289583333,0.02170815505
0.08291666667,0.02179272287
0.0829375,0.02188322134
0.08295833333,0.0220026914
0.08297916667,0.02210887149
0.083,0.02231248841
0.08302083333,0.02244955301
0.08304166667,0.02260998823
0.0830625,0.02273027785
0.08308333333,0.0228066016
0.08310416667,0.02292409167
0.083125,0.02290162817
0.08314583333,0.0229773894
0.08316666667,0.02310412936
0.0831875,0.02320807055
0.08320833333,0.02342286333
0.08322916667,0.02362423204
0.08325,0.02371086366
0.08327083333,0.02382990532
0.08329166667,0.02389396727
0.0833125,0.02389348298
0.08333333333,0.02400347032
0.08335416667,0.02403888106
0.083375,0.02409037389
0.08339583333,0.02414062433
0.08341666667,0.02419082448
0.0834375,0.02425407246
0.08345833333,0.02432659827
0.08347916667,0.02446188591
0.0835,0.02458863519
0.08352083333,0.02478086203
0.08354166667,0.02492267825
0.0835625,0.02513490804
0.08358333333,0.02530311234
0.08360416667,0.0254129786
0.083625,0.02557126246
0.08364583333,0.02559305727
0.08366666667,0.02566629648
0.0836875,0.02571541257
0.08370833333,0.02576650679
0.08372916667,0.02594757266
0.08375,0.02610512637
0.08377083333,0.02632398531
0.08379166667,0.0264976006
0.0838125,0.0266667679
0.08383333333,0.02680233493
0.08385416667,0.02689418942
0.083875,0.02703936212
0.08389583333,0.02713628858
0.08391666667,0.02727920935
0.0839375,0.02733593062
0.08395833333,0.02732527442
0.08397916667,0.02732808702
0.084,0.02724436857
0.08402083333,0.02717546746
0.08404166667,0.02717961743
0.0840625,0.02726333961
0.08408333333,0.02730525844
0.08410416667,0.02748556994
0.084125,0.0275840573
0.08414583333,0.02774766833
0.08416666667,0.02804717794
0.0841875,0.0281665232
0.08420833333,0.02841741405
0.08422916667,0.0286403168
0.08425,0.02880247124
0.08427083333,0.02892489359
0.08429166667,0.02901254036
0.0843125,0.02911433391
0.08433333333,0.02909059264
0.08435416667,0.02915119193
0.084375,0.02918563783
0.08439583333,0.02927551232
0.08441666667,0.02940938622
0.0844375,0.02959485538
0.08445833333,0.02978645824
0.08447916667,0.02988833375
0.0845,0.0300673414
0.08452083333,0.03015488572
0.08454166667,0.03022396006
0.0845625,0.03029287234
0.08458333333,0.03035962954
0.08460416667,0.03040555678
0.084625,0.0304311309
0.08464583333,0.03039666638
0.08466666667,0.0303376317
0.0846875,0.03028238751
0.08470833333,0.03019421361
0.08472916667,0.03024178185
0.08475,0.03016510047
0.08477083333,0.03031187505
0.08479166667,0.0304894913
0.0848125,0.03057908267
0.08483333333,0.03082997166
0.08485416667,0.03088697791
0.084875,0.03100068681
0.08489583333,0.03106676787
0.08491666667,0.03111441061
0.0849375,0.03119749576
0.08495833333,0.03121038899
0.08497916667,0.03132224083
0.085,0.03128128499
0.08502083333,0.03127698228
0.08504166667,0.03131034598
0.0850625,0.03132079914
0.08508333333,0.03141252324
0.08510416667,0.03150277585
0.085125,0.03177280724
0.08514583333,0.03199885041
0.08516666667,0.0321765691
0.0851875,0.032354258
0.08520833333,0.03239220753
0.08522916667,0.03252860159
0.08525,0.03254520893
0.08527083333,0.03252399713
0.08529166667,0.03255489096
0.0853125,0.03258173913
0.08533333333,0.03254085779
0.08535416667,0.03250786662
0.085375,0.03252094984
0.08539583333,0.03247112781
0.08541666667,0.03258961439
0.0854375,0.03275063634
0.08545833333,0.03293015063
0.08547916667,0.03323472291
0.0855,0.03342970833
0.08552083333,0.0335920006
0.08554166667,0.03372209147
0.0855625,0.03383925557
0.08558333333,0.03393308818
0.08560416667,0.03402835503
0.085625,0.03406471014
0.08564583333,0.03402891755
0.08566666667,0.03402887285
0.0856875,0.0340138115
0.08570833333,0.0340398252
0.08572916667,0.03405117989
0.08575,0.03409925848
0.08577083333,0.03426493332
0.08579166667,0.03430352733
0.0858125,0.03438012302
0.08583333333,0.03446151689
0.08585416667,0.03448592871
0.085875,0.03455220535
0.08589583333,0.03441892564
0.08591666667,0.03433192521
0.0859375,0.03420921415
0.08595833333,0.03408240899
0.08597916667,0.0339474231
0.086,0.03367741033
0.08602083333,0.03358389437
0.08604166667,0.03333480284
0.0860625,0.03324354067
0.08608333333,0.03323553875
0.08610416667,0.03310669959
0.086125,0.03326581791
0.08614583333,0.03306508809
0.08616666667,0.0330234915
0.0861875,0.03297605738
0.08620833333,0.03271029517
0.08622916667,0.03268703073
0.08625,0.03251729533
0.08627083333,0.03241589665
0.08629166667,0.03228255734
0.0863125,0.03219911829
0.08633333333,0.0320860669
0.08635416667,0.03183404729
0.086375,0.0317122452
0.08639583333,0.03146626428
0.08641666667,0.03127586842
0.0864375,0.031126583
0.08645833333,0.031009892
0.08647916667,0.03087545559
0.0865,0.03071279451
0.08652083333,0.03051973507
0.08654166667,0.03024365753
0.0865625,0.0298747886
0.08658333333,0.02944870852
0.08660416667,0.02908509783
0.086625,0.02867943048
0.08664583333,0.02832240425
0.08666666667,0.02798637003
0.0866875,0.02767908946
0.08670833333,0.02743400261
0.08672916667,0.02720832452
0.08675,0.0270544719
0.08677083333,0.02689665556
0.08679166667,0.02676604316
0.0868125,0.02660223842
0.08683333333,0.02636869065
0.08685416667,0.02611687966
0.086875,0.02591261081
0.08689583333,0.02568335086
0.08691666667,0.02540766448
0.0869375,0.02518296242
0.08695833333,0.02486784011
0.08697916667,0.02460892312
0.087,0.02443851344
0.08702083333,0.02434770577
0.08704166667,0.02412397042
0.0870625,0.02397531271
0.08708333333,0.0240046531
0.08710416667,0.02384384908
0.087125,0.0237255469
0.08714583333,0.02358356118
0.08716666667,0.0234256722
0.0871875,0.02329702675
0.08720833333,0.02305744216
0.08722916667,0.0228429772
0.08725,0.02263415605
0.08727083333,0.02247333154
0.08729166667,0.02228697017
0.0873125,0.02206628211
0.08733333333,0.02190715447
0.08735416667,0.02179600857
0.087375,0.0216840636
0.08739583333,0.02161830291
0.08741666667,0.02160431445
0.0874375,0.02158524655
0.08745833333,0.02157275751
0.08747916667,0.02150556073
0.0875,0.02140423283
0.08752083333,0.02125450596
0.08754166667,0.021031579
0.0875625,0.02082534879
0.08758333333,0.02061348967
0.08760416667,0.02040133253
0.087625,0.02022501267
0.08764583333,0.01999517903
0.08766666667,0.01982275583
0.0876875,0.01971938647
0.08770833333,0.0196505785
0.08772916667,0.01963253692
0.08775,0.01963986456
0.08777083333,0.01967584901
0.08779166667,0.01967069879
0.0878125,0.01964847744
0.08783333333,0.01956082694
0.08785416667,0.01935772784
0.087875,0.01910223253
0.08789583333,0.0188566912
0.08791666667,0.01859072037
0.0879375,0.01830517501
0.08795833333,0.01807710901
0.08797916667,0.01783320308
0.088,0.0176486522
0.08802083333,0.01749686152
0.08804166667,0.01730127074
0.0880625,0.01716089621
0.08808333333,0.01703357697
0.08810416667,0.01693237945
0.088125,0.01677389629
0.08814583333,0.01664256677
0.08816666667,0.01646189764
0.0881875,0.01623946615
0.08820833333,0.01615026221
0.08822916667,0.01602552272
0.08825,0.01566459052
0.08827083333,0.01538138743
0.08829166667,0.01517890673
0.0883125,0.01501305401
0.08833333333,0.01501421537
0.08835416667,0.01489604358
0.088375,0.01497815829
0.08839583333,0.01495575905
0.08841666667,0.01490451023
0.0884375,0.0149107473
0.08845833333,0.01472360641
0.08847916667,0.01469984837
0.0885,0.01444960292
0.08852083333,0.01416875795
0.08854166667,0.01396032702
0.0885625,0.01354277227
0.08858333333,0.01329070702
0.08860416667,0.01300139632
0.088625,0.01277342066
0.08864583333,0.01256948523
0.08866666667,0.01240729913
0.0886875,0.01224052534
0.08870833333,0.0120530799
0.08872916667,0.01195665449
0.08875,0.01178404316
0.08877083333,0.01161808427
0.08879166667,0.01143540908
0.0888125,0.01121723652
0.08883333333,0.01100258715
0.08885416667,0.01068914123
0.088875,0.01041111723
0.08889583333,0.0101335831
0.08891666667,0.009857969359
0.0889375,0.009663265198
0.08895833333,0.00950144697
0.08897916667,0.009310898371
0.089,0.009224281646
0.08902083333,0.009062651545
0.08904166667,0.008924998343
0.0890625,0.008784484118
0.08908333333,0.008562288247
0.08910416667,0.008425593376
0.089125,0.008226346225
0.08914583333,0.008008712903
0.08916666667,0.007761415094
0.0891875,0.007458437234
0.08920833333,0.007168147713
0.08922916667,0.006854454987
0.08925,0.006628823932
0.08927083333,0.006440402009
0.08929166667,0.00633874815
0.0893125,0.006215264089
0.08933333333,0.006121440325
0.08935416667,0.006085378118
0.089375,0.00592132844
0.08939583333,0.005810886621
0.08941666667,0.005717687309
0.0894375,0.005551428534
0.08945833333,0.005304346792
0.08947916667,0.005188713782
0.0895,0.004971125629
0.08952083333,0.00484775193
0.08954166667,0.004625666887
0.0895625,0.004379721358
0.08958333333,0.004251657985
0.08960416667,0.003996001557
0.089625,0.003837022465
0.08964583333,0.003724707523
0.08966666667,0.003677290631
0.0896875,0.003702712944
0.08970833333,0.003657227149
0.08972916667,0.003603372257
0.08975,0.003473996418
0.08977083333,0.003310212865
0.08979166667,0.00311304885
0.0898125,0.002830461133
0.08983333333,0.002532384824
0.08985416667,0.002224416705
0.089875,0.001930794562
0.08989583333,0.001635904773
0.08991666667,0.001357672969
0.0899375,0.001128367963
0.08995833333,0.0008958099643
0.08997916667,0.0006964556524
0.09,0.0005412520259
0.09002083333,0.000377956283
0.09004166667,0.0002698576427
0.0900625,0.000167555103
0.09008333333,8.371980221e-05
0.09010416667,-2.675831274e-05
0.090125,-0.00015779557
0.09014583333,-0.0002848889853
0.09016666667,-0.0004900624044
0.0901875,-0.0006980053149
0.09020833333,-0.0009455561521
0.09022916667,-0.001162531204
0.09025,-0.001305440324
0.09027083333,-0.001468675677
0.09029166667,-0.001726747141
