time,data
0,1.058025305e-06
2.083333333e-05,1.033233616e-06
4.166666667e-05,1.007937044e-06
6.25e-05,9.81943117e-07
8.333333333e-05,9.551638414e-07
0.0001041666667,9.272923762e-07
0.000125,8.980601933e-07
0.0001458333333,8.670124316e-07
0.0001666666667,8.337611916e-07
0.0001875,7.979903103e-07
0.0002083333333,7.593748137e-07
0.0002291666667,7.177419548e-07
0.00025,6.7269292e-07
0.0002708333333,6.239404229e-07
0.0002916666667,5.710234632e-07
0.0003125,5.136363939e-07
0.0003333333333,4.515631531e-07
0.0003541666667,3.846296863e-07
0.000375,3.128222374e-07
0.0003958333333,2.359353317e-07
0.0004166666667,1.539188332e-07
0.0004375,6.659143281e-08
0.0004583333333,-2.603123228e-08
0.0004791666667,-1.238433782e-07
0.0005,-2.267111654e-07
0.0005208333333,-3.343422463e-07
0.0005416666667,-4.466726011e-07
0.0005625,-5.634286708e-07
0.0005833333333,-6.845547205e-07
0.0006041666667,-8.097524642e-07
0.000625,-9.387679256e-07
0.0006458333333,-1.07128642e-06
0.0006666666667,-1.206880256e-06
0.0006875,-1.345307396e-06
0.0007083333333,-1.486084557e-06
0.0007291666667,-1.62897004e-06
0.00075,-1.773483859e-06
0.0007708333333,-1.919209353e-06
0.0007916666667,-2.06566483e-06
0.0008125,-2.212148956e-06
0.0008333333333,-2.358167876e-06
0.0008541666667,-2.502909183e-06
0.000875,-2.645954964e-06
0.0008958333333,-2.786661298e-06
0.0009166666667,-2.924580031e-06
0.0009375,-3.059132951e-06
0.0009583333333,-3.18957359e-06
0.0009791666667,-3.315294407e-06
0.001,-3.435520057e-06
0.001020833333,-3.549902885e-06
0.001041666667,-3.657988145e-06
0.0010625,-3.759471156e-06
0.001083333333,-3.853826001e-06
0.001104166667,-3.940277111e-06
0.001125,-4.018163963e-06
0.001145833333,-4.086667559e-06
0.001166666667,-4.145554612e-06
0.0011875,-4.194360372e-06
0.001208333333,-4.232903848e-06
0.001229166667,-4.26052793e-06
0.00125,-4.276499567e-06
0.001270833333,-4.280163466e-06
0.001291666667,-4.270938007e-06
0.0013125,-4.24890095e-06
0.001333333333,-4.213945886e-06
0.001354166667,-4.166191502e-06
0.001375,-4.105299013e-06
0.001395833333,-4.030780474e-06
0.001416666667,-3.942415333e-06
0.0014375,-3.839961664e-06
0.001458333333,-3.72393697e-06
0.001479166667,-3.594430382e-06
0.0015,-3.451765906e-06
0.001520833333,-3.295630677e-06
0.001541666667,-3.125755484e-06
0.0015625,-2.942034371e-06
0.001583333333,-2.744568064e-06
0.001604166667,-2.534011628e-06
0.001625,-2.310743866e-06
0.001645833333,-2.075283419e-06
0.001666666667,-1.827704182e-06
0.0016875,-1.568200901e-06
0.001708333333,-1.297255494e-06
0.001729166667,-1.015443445e-06
0.00175,-7.239547699e-07
0.001770833333,-4.234368873e-07
0.001791666667,-1.149137958e-07
0.0018125,2.012814377e-07
0.001833333333,5.244767749e-07
0.001854166667,8.54057987e-07
0.001875,1.189274371e-06
0.001895833333,1.529045221e-06
0.001916666667,1.872629468e-06
0.0019375,2.219011321e-06
0.001958333333,2.567541515e-06
0.001979166667,2.917451638e-06
0.002,3.267857892e-06
0.002020833333,3.617965376e-06
0.002041666667,3.966430086e-06
0.0020625,4.312221336e-06
0.002083333333,4.653778433e-06
0.002104166667,4.990085472e-06
0.002125,5.319923275e-06
0.002145833333,5.642516953e-06
0.002166666667,5.956901077e-06
0.0021875,6.26201836e-06
0.002208333333,6.556639619e-06
0.002229166667,6.839368325e-06
0.00225,7.109254966e-06
0.002270833333,7.365508736e-06
0.002291666667,7.607816315e-06
0.0023125,7.835697033e-06
0.002333333333,8.048217751e-06
0.002354166667,8.244301171e-06
0.002375,8.422303836e-06
0.002395833333,8.58151725e-06
0.002416666667,8.721069207e-06
0.0024375,8.841004274e-06
0.002458333333,8.940718544e-06
0.002479166667,9.019377103e-06
0.0025,9.075713024e-06
0.002520833333,9.108423001e-06
0.002541666667,9.117066838e-06
0.0025625,9.101634532e-06
0.002583333333,9.062671779e-06
0.002604166667,9.000362297e-06
0.002625,8.914268619e-06
0.002645833333,8.803839592e-06
0.002666666667,8.66836308e-06
0.0026875,8.508292012e-06
0.002708333333,8.324084774e-06
0.002729166667,8.116900972e-06
0.00275,7.886823369e-06
0.002770833333,7.63382377e-06
0.002791666667,7.35723188e-06
0.0028125,7.056935829e-06
0.002833333333,6.733484952e-06
0.002854166667,6.387861049e-06
0.002875,6.021303307e-06
0.002895833333,5.634425634e-06
0.002916666667,5.227639122e-06
0.0029375,4.801299838e-06
0.002958333333,4.356074896e-06
0.002979166667,3.893605026e-06
0.003,3.415314268e-06
0.003020833333,2.923284228e-06
0.003041666667,2.418387112e-06
0.0030625,1.901945211e-06
0.003083333333,1.374511385e-06
0.003104166667,8.37365576e-07
0.003125,2.918074813e-07
0.003145833333,-2.606346072e-07
0.003166666667,-8.183186537e-07
0.0031875,-1.380050435e-06
0.003208333333,-1.944496034e-06
0.003229166667,-2.510612148e-06
0.00325,-3.077163456e-06
0.003270833333,-3.642541969e-06
0.003291666667,-4.205213827e-06
0.0033125,-4.762747722e-06
0.003333333333,-5.313501788e-06
0.003354166667,-5.85500311e-06
0.003375,-6.386202585e-06
0.003395833333,-6.905355804e-06
0.003416666667,-7.41150734e-06
0.0034375,-7.902916877e-06
0.003458333333,-8.37760399e-06
0.003479166667,-8.833751053e-06
0.0035,-9.269527254e-06
0.003520833333,-9.684358702e-06
0.003541666667,-1.007771152e-05
0.0035625,-1.044909823e-05
0.003583333333,-1.079752565e-05
0.003604166667,-1.112065274e-05
0.003625,-1.141696794e-05
0.003645833333,-1.168428571e-05
0.003666666667,-1.192270156e-05
0.0036875,-1.2131517e-05
0.003708333333,-1.23107684e-05
0.003729166667,-1.245886415e-05
0.00375,-1.257383246e-05
0.003770833333,-1.265398259e-05
0.003791666667,-1.269831591e-05
0.0038125,-1.27076255e-05
0.003833333333,-1.268269079e-05
0.003854166667,-1.26241921e-05
0.003875,-1.253170831e-05
0.003895833333,-1.240388519e-05
0.003916666667,-1.224055086e-05
0.0039375,-1.204145246e-05
0.003958333333,-1.180887648e-05
0.003979166667,-1.154353049e-05
0.004,-1.124684059e-05
0.004020833333,-1.09178136e-05
0.004041666667,-1.055588382e-05
0.0040625,-1.016074202e-05
0.004083333333,-9.733143997e-06
0.004104166667,-9.275273442e-06
0.004125,-8.788612831e-06
0.004145833333,-8.274598258e-06
0.004166666667,-7.733535313e-06
0.0041875,-7.165709121e-06
0.004208333333,-6.572723578e-06
0.004229166667,-5.956164841e-06
0.00425,-5.319701359e-06
0.004270833333,-4.665008419e-06
0.004291666667,-3.994928647e-06
0.0043125,-3.309890417e-06
0.004333333333,-2.611641321e-06
0.004354166667,-1.90137132e-06
0.004375,-1.181176685e-06
0.004395833333,-4.536155984e-07
0.004416666667,2.79539961e-07
0.0044375,1.015955718e-06
0.004458333333,1.754529421e-06
0.004479166667,2.493598458e-06
0.0045,3.231330311e-06
0.004520833333,3.966134955e-06
0.004541666667,4.694527433e-06
0.0045625,5.414759926e-06
0.004583333333,6.122635114e-06
0.004604166667,6.816757832e-06
0.004625,7.494112651e-06
0.004645833333,8.153650924e-06
0.004666666667,8.793463167e-06
0.0046875,9.411222891e-06
0.004708333333,1.000474458e-05
0.004729166667,1.057079953e-05
0.00475,1.110802987e-05
0.004770833333,1.161524142e-05
0.004791666667,1.209233415e-05
0.0048125,1.25392462e-05
0.004833333333,1.295375932e-05
0.004854166667,1.333444743e-05
0.004875,1.367724963e-05
0.004895833333,1.398178665e-05
0.004916666667,1.424629409e-05
0.0049375,1.447203886e-05
0.004958333333,1.465808236e-05
0.004979166667,1.480291849e-05
0.005,1.490421346e-05
0.005020833333,1.495911056e-05
0.005041666667,1.49677353e-05
0.0050625,1.493063337e-05
0.005083333333,1.485005396e-05
0.005104166667,1.472720032e-05
0.005125,1.456109567e-05
0.005145833333,1.435159174e-05
0.005166666667,1.409672041e-05
0.0051875,1.37991874e-05
0.005208333333,1.345994042e-05
0.005229166667,1.308288756e-05
0.00525,1.26682653e-05
0.005270833333,1.221616549e-05
0.005291666667,1.172558132e-05
0.0053125,1.11960635e-05
0.005333333333,1.062996489e-05
0.005354166667,1.002938552e-05
0.005375,9.397834219e-06
0.005395833333,8.736644304e-06
0.005416666667,8.046540643e-06
0.0054375,7.32897297e-06
0.005458333333,6.584735274e-06
0.005479166667,5.818926184e-06
0.0055,5.033661637e-06
0.005520833333,4.234681455e-06
0.005541666667,3.422858526e-06
0.0055625,2.601249889e-06
0.005583333333,1.770992753e-06
0.005604166667,9.341500231e-07
0.005625,9.437922444e-08
0.005645833333,-7.463763154e-07
0.005666666667,-1.584053962e-06
0.0056875,-2.417202495e-06
0.005708333333,-3.243473202e-06
0.005729166667,-4.060480023e-06
0.00575,-4.867181815e-06
0.005770833333,-5.659037015e-06
0.005791666667,-6.43508838e-06
0.0058125,-7.189267762e-06
0.005833333333,-7.919944437e-06
0.005854166667,-8.622029782e-06
0.005875,-9.293818948e-06
0.005895833333,-9.933150977e-06
0.005916666667,-1.053761844e-05
0.0059375,-1.110594894e-05
0.005958333333,-1.163367597e-05
0.005979166667,-1.211888866e-05
0.006,-1.255845473e-05
0.006020833333,-1.295175571e-05
0.006041666667,-1.329992483e-05
0.0060625,-1.360142778e-05
0.006083333333,-1.385737505e-05
0.006104166667,-1.40620923e-05
0.006125,-1.421509569e-05
0.006145833333,-1.431199235e-05
0.006166666667,-1.435423292e-05
0.0061875,-1.434220667e-05
0.006208333333,-1.427592179e-05
0.006229166667,-1.41549408e-05
0.00625,-1.397474625e-05
0.006270833333,-1.37342422e-05
0.006291666667,-1.343190524e-05
0.0063125,-1.307039474e-05
0.006333333333,-1.265352148e-05
0.006354166667,-1.218230136e-05
0.006375,-1.165918275e-05
0.006395833333,-1.108039396e-05
0.006416666667,-1.044861438e-05
0.0064375,-9.762959053e-06
0.006458333333,-9.029819012e-06
0.006479166667,-8.251788131e-06
0.0065,-7.431830909e-06
0.006520833333,-6.570484857e-06
0.006541666667,-5.665502158e-06
0.0065625,-4.719085609e-06
0.006583333333,-3.731894367e-06
0.006604166667,-2.709832643e-06
0.006625,-1.656827294e-06
0.006645833333,-5.750723062e-07
0.006666666667,5.317469345e-07
0.0066875,1.665351533e-06
0.006708333333,2.819034535e-06
0.006729166667,3.991685844e-06
0.00675,5.174215403e-06
0.006770833333,6.363205102e-06
0.006791666667,7.553746855e-06
0.0068125,8.742618775e-06
0.006833333333,9.928785403e-06
0.006854166667,1.110722769e-05
0.006875,1.227614666e-05
0.006895833333,1.342956784e-05
0.006916666667,1.456427799e-05
0.0069375,1.567708205e-05
0.006958333333,1.676364991e-05
0.006979166667,1.78240316e-05
0.007,1.885186975e-05
0.007020833333,1.984773371e-05
0.007041666667,2.080342347e-05
0.0070625,2.171718006e-05
0.007083333333,2.258172753e-05
0.007104166667,2.339323146e-05
0.007125,2.414924893e-05
0.007145833333,2.484558172e-05
0.007166666667,2.548288103e-05
0.0071875,2.605561531e-05
0.007208333333,2.656167817e-05
0.007229166667,2.699639663e-05
0.00725,2.735605085e-05
0.007270833333,2.764293095e-05
0.007291666667,2.785437573e-05
0.0073125,2.799598042e-05
0.007333333333,2.806192424e-05
0.007354166667,2.805268196e-05
0.007375,2.796163972e-05
0.007395833333,2.778773887e-05
0.007416666667,2.753215813e-05
0.0074375,2.719538497e-05
0.007458333333,2.67813648e-05
0.007479166667,2.62859885e-05
0.0075,2.570812831e-05
0.007520833333,2.504374788e-05
0.007541666667,2.429287269e-05
0.0075625,2.346149995e-05
0.007583333333,2.25517997e-05
0.007604166667,2.157250492e-05
0.007625,2.05197266e-05
0.007645833333,1.939757567e-05
0.007666666667,1.820264151e-05
0.0076875,1.694079765e-05
0.007708333333,1.561807039e-05
0.007729166667,1.423994581e-05
0.00775,1.281313507e-05
0.007770833333,1.133535443e-05
0.007791666667,9.809196854e-06
0.0078125,8.233687367e-06
0.007833333333,6.613885489e-06
0.007854166667,4.95794211e-06
0.007875,3.269679837e-06
0.007895833333,1.558511258e-06
0.007916666667,-1.781416898e-07
0.0079375,-1.932155101e-06
0.007958333333,-3.703644552e-06
0.007979166667,-5.481956578e-06
0.008,-7.259871836e-06
0.008020833333,-9.029709872e-06
0.008041666667,-1.078333935e-05
0.0080625,-1.251977392e-05
0.008083333333,-1.423170215e-05
0.008104166667,-1.591768341e-05
0.008125,-1.757018981e-05
0.008145833333,-1.918281487e-05
0.008166666667,-2.075192788e-05
0.0081875,-2.226830657e-05
0.008208333333,-2.373370808e-05
0.008229166667,-2.513809159e-05
0.00825,-2.648353438e-05
0.008270833333,-2.776049951e-05
0.008291666667,-2.896576189e-05
0.0083125,-3.009217471e-05
0.008333333333,-3.113095954e-05
0.008354166667,-3.207967893e-05
0.008375,-3.292983456e-05
0.008395833333,-3.3682496e-05
0.008416666667,-3.433235543e-05
0.0084375,-3.487633148e-05
0.008458333333,-3.531101174e-05
0.008479166667,-3.562732309e-05
0.0085,-3.582768841e-05
0.008520833333,-3.590529741e-05
0.008541666667,-3.586865205e-05
0.0085625,-3.571360867e-05
0.008583333333,-3.544271749e-05
0.008604166667,-3.505023415e-05
0.008625,-3.453066529e-05
0.008645833333,-3.388447294e-05
0.008666666667,-3.310897227e-05
0.0086875,-3.221204679e-05
0.008708333333,-3.119224129e-05
0.008729166667,-3.005031976e-05
0.00875,-2.878266059e-05
0.008770833333,-2.738321746e-05
0.008791666667,-2.585830589e-05
0.0088125,-2.42068636e-05
0.008833333333,-2.244440293e-05
0.008854166667,-2.057000165e-05
0.008875,-1.859115946e-05
0.008895833333,-1.65047677e-05
0.008916666667,-1.431217333e-05
0.0089375,-1.202111162e-05
0.008958333333,-9.636499271e-06
0.008979166667,-7.172726328e-06
0.009,-4.631302545e-06
0.009020833333,-2.017171028e-06
0.009041666667,6.70169868e-07
0.0090625,3.430561037e-06
0.009083333333,6.252722869e-06
0.009104166667,9.133680578e-06
0.009125,1.20558625e-05
0.009145833333,1.5019903e-05
0.009166666667,1.801499457e-05
0.0091875,2.104121631e-05
0.009208333333,2.409039189e-05
0.009229166667,2.715109804e-05
0.00925,3.021473094e-05
0.009270833333,3.326518345e-05
0.009291666667,3.629880666e-05
0.0093125,3.930541789e-05
0.009333333333,4.228147372e-05
0.009354166667,4.522114978e-05
0.009375,4.811279723e-05
0.009395833333,5.095360393e-05
0.009416666667,5.372736996e-05
0.0094375,5.643525219e-05
0.009458333333,5.906373553e-05
0.009479166667,6.161326019e-05
0.0095,6.40749131e-05
0.009520833333,6.644197856e-05
0.009541666667,6.870870129e-05
0.0095625,7.086092955e-05
0.009583333333,7.289467612e-05
0.009604166667,7.47966842e-05
0.009625,7.656444359e-05
0.009645833333,7.819306484e-05
0.009666666667,7.967623969e-05
0.0096875,8.101380809e-05
0.009708333333,8.219094889e-05
0.009729166667,8.32093283e-05
0.00975,8.405563858e-05
0.009770833333,8.473669004e-05
0.009791666667,8.524974692e-05
0.0098125,8.559796697e-05
0.009833333333,8.578073175e-05
0.009854166667,8.578816778e-05
0.009875,8.561955474e-05
0.009895833333,8.526590682e-05
0.009916666667,8.473359048e-05
0.0099375,8.402460662e-05
0.009958333333,8.314065781e-05
0.009979166667,8.208420331e-05
0.01,-0.000164010693
0.01002083333,-0.0001664282609
0.01004166667,-0.000169706298
0.0100625,-0.0001736529521
0.01008333333,-0.0001784375199
0.01010416667,-0.0001838414173
0.010125,-0.0001901186188
0.01014583333,-0.0001970276935
0.01016666667,-0.0002047965827
0.0101875,-0.0002132112277
0.01020833333,-0.0002224495402
0.01022916667,-0.0002322633518
0.01025,-0.0002428563166
0.01027083333,-0.0002538718109
0.01029166667,-0.0002655071439
0.0103125,-0.0002774290915
0.01033333333,-0.0002898463281
0.01035416667,-0.0003025027981
0.010375,-0.000315694022
0.01039583333,-0.0003291735484
0.01041666667,-0.0003432617232
0.0104375,-0.0003577265306
0.01045833333,-0.0003727997828
0.01047916667,-0.0003881618031
0.0105,-0.0004039947526
0.01052083333,-0.0004198673996
0.01054166667,-0.000435981201
0.0105625,-0.0004519344948
0.01058333333,-0.0004680244892
0.01060416667,-0.0004839761532
0.010625,-0.000500263006
0.01064583333,-0.0005165800685
0.01066666667,-0.0005333461449
0.0106875,-0.0005502204876
0.01070833333,-0.0005675284774
0.01072916667,-0.0005848110304
0.01075,-0.0006023814785
0.01077083333,-0.0006197222974
0.01079166667,-0.0006371833151
0.0108125,-0.0006542729679
0.01083333333,-0.0006713871262
0.01085416667,-0.0006881761365
0.010875,-0.000705236569
0.01089583333,-0.0007221653941
0.01091666667,-0.0007395338034
0.0109375,-0.0007567557623
0.01095833333,-0.0007742815069
0.01097916667,-0.0007914532325
0.011,-0.0008087517926
0.01102083333,-0.000825620722
0.01104166667,-0.0008425471024
0.0110625,-0.0008590834914
0.01108333333,-0.0008757418254
0.01110416667,-0.0008919622633
0.011125,-0.0009084440535
0.01114583333,-0.0009246078553
0.01116666667,-0.0009411106003
0.0111875,-0.0009573410498
0.01120833333,-0.0009738605586
0.01122916667,-0.0009899301222
0.01125,-0.001006117556
0.01127083333,-0.001021779492
0.01129166667,-0.001037483104
0.0113125,-0.001052656211
0.01133333333,-0.001068022801
0.01135416667,-0.001082874369
0.011375,-0.001098092878
0.01139583333,-0.001112890895
0.01141666667,-0.001127991593
0.0114375,-0.001142707886
0.01145833333,-0.001157682505
0.01147916667,-0.001172159449
0.0115,-0.001186886569
0.01152083333,-0.00120110868
0.01154166667,-0.001215513097
0.0115625,-0.00122944382
0.01158333333,-0.001243671984
0.01160416667,-0.001257423544
0.011625,-0.00127168803
0.01164583333,-0.001285650651
0.01166666667,-0.0013001021
0.0116875,-0.001314299065
0.01170833333,-0.001329039456
0.01172916667,-0.001343340031
0.01175,-0.00135804317
0.01177083333,-0.001372251776
0.01179166667,-0.001386647695
0.0118125,-0.001400383771
0.01183333333,-0.001414397149
0.01185416667,-0.001427936368
0.011875,-0.001442304114
0.01189583333,-0.001456781989
0.01191666667,-0.001472421689
0.0119375,-0.001488192356
0.01195833333,-0.001504745451
0.01197916667,-0.001520728692
0.012,-0.001537148259
0.01202083333,-0.0015527996
0.01204166667,-0.001569038373
0.0120625,-0.001584910788
0.01208333333,-0.001601704862
0.01210416667,-0.001618585549
0.012125,-0.001636561356
0.01214583333,-0.001654550782
0.01216666667,-0.001673496328
0.0121875,-0.001691892976
0.01220833333,-0.001710775425
0.01222916667,-0.001728860778
0.01225,-0.001747398404
0.01227083333,-0.001765638939
0.01229166667,-0.001784838154
0.0123125,-0.001804134925
0.01233333333,-0.001824608655
0.01235416667,-0.001844970742
0.012375,-0.001866381848
0.01239583333,-0.001887448481
0.01241666667,-0.001909380895
0.0124375,-0.001930705737
0.01245833333,-0.001952711493
0.01247916667,-0.001973959152
0.0125,-0.00199582777
0.01252083333,-0.0020172121
0.01254166667,-0.002039488638
0.0125625,-0.002061930718
0.01258333333,-0.002085716929
0.01260416667,-0.0021098
0.012625,-0.002135490533
0.01264583333,-0.002161222044
0.01266666667,-0.00218816055
0.0126875,-0.002214443404
0.01270833333,-0.00224116398
0.01272916667,-0.002266817959
0.01275,-0.002292893827
0.01277083333,-0.00231829402
0.01279166667,-0.002344884444
0.0128125,-0.00237137801
0.01283333333,-0.00239934912
0.01285416667,-0.002427253872
0.012875,-0.002456248039
0.01289583333,-0.002484622179
0.01291666667,-0.002513875952
0.0129375,-0.002542182337
0.01295833333,-0.002571050311
0.01297916667,-0.002598928288
0.013,-0.00262749684
0.01302083333,-0.002655135468
0.01304166667,-0.002683574567
0.0130625,-0.002711405279
0.01308333333,-0.002740215743
0.01310416667,-0.002768451115
0.013125,-0.002797896508
0.01314583333,-0.00282679568
0.01316666667,-0.002856664127
0.0131875,-0.002885585651
0.01320833333,-0.002914940007
0.01322916667,-0.002942747669
0.01325,-0.002970841713
0.01327083333,-0.002997784875
0.01329166667,-0.003025525715
0.0133125,-0.003052784828
0.01333333333,-0.003081414383
0.01335416667,-0.003109572222
0.013375,-0.00313880574
0.01339583333,-0.003166781971
0.01341666667,-0.003195072524
0.0134375,-0.003221434075
0.01345833333,-0.003247795859
0.01347916667,-0.00327245309
0.0135,-0.003297773656
0.01352083333,-0.00332218851
0.01354166667,-0.003347964957
0.0135625,-0.003373199143
0.01358333333,-0.003399570007
0.01360416667,-0.00342454738
0.013625,-0.003449915675
0.01364583333,-0.003473738208
0.01366666667,-0.00349769718
0.0136875,-0.003520277794
0.01370833333,-0.003543538507
0.01372916667,-0.003565413645
0.01375,-0.003588248976
0.01377083333,-0.00361017976
0.01379166667,-0.003633103799
0.0138125,-0.003654885571
0.01383333333,-0.003677572357
0.01385416667,-0.003698753426
0.013875,-0.003720440669
0.01389583333,-0.003740263637
0.01391666667,-0.00376027124
0.0139375,-0.003778704442
0.01395833333,-0.003797336249
0.01397916667,-0.003814437427
0.014,-0.003832558636
0.01402083333,-0.003849567147
0.01404166667,-0.003868022002
0.0140625,-0.003885060782
0.01408333333,-0.003902907483
0.01410416667,-0.003918382805
0.014125,-0.00393363554
0.01414583333,-0.003946713172
0.01416666667,-0.003959993832
0.0141875,-0.003972293809
0.01420833333,-0.003986008465
0.01422916667,-0.003999111708
0.01425,-0.004013834056
0.01427083333,-0.004027733579
0.01429166667,-0.004042653367
0.0143125,-0.004056189209
0.01433333333,-0.004070305265
0.01435416667,-0.004082775209
0.014375,-0.004095797427
0.01439583333,-0.004107600544
0.01441666667,-0.004120520782
0.0144375,-0.004132480826
0.01445833333,-0.004145660438
0.01447916667,-0.004157739691
0.0145,-0.00417114934
0.01452083333,-0.004182958044
0.01454166667,-0.004196237773
0.0145625,-0.004207787104
0.01458333333,-0.004220413044
0.01460416667,-0.004231806844
0.014625,-0.004244279582
0.01464583333,-0.004255528562
0.01466666667,-0.004268254153
0.0146875,-0.004279879387
0.01470833333,-0.004292647354
0.01472916667,-0.004304233007
0.01475,-0.004317171872
0.01477083333,-0.004328869749
0.01479166667,-0.00434205262
0.0148125,-0.004354225937
0.01483333333,-0.004367233254
0.01485416667,-0.004378472921
0.014875,-0.004390810616
0.01489583333,-0.004401875194
0.01491666667,-0.004415124189
0.0149375,-0.004428163636
0.01495833333,-0.004443528131
0.01497916667,-0.004457496107
0.015,-0.004472392611
0.01502083333,-0.004484418314
0.01504166667,-0.004496634938
0.0150625,-0.004506693222
0.01508333333,-0.004518087488
0.01510416667,-0.004528454505
0.015125,-0.004541027825
0.01514583333,-0.004553057719
0.01516666667,-0.004567075055
0.0151875,-0.004580523819
0.01520833333,-0.004595655948
0.01522916667,-0.004609317053
0.01525,-0.0046246727
0.01527083333,-0.004637748469
0.01529166667,-0.004651601426
0.0153125,-0.00466316333
0.01533333333,-0.00467537716
0.01535416667,-0.004685667343
0.015375,-0.004697739147
0.01539583333,-0.004708137363
0.01541666667,-0.004721380305
0.0154375,-0.004734009504
0.01545833333,-0.004748922773
0.01547916667,-0.004763321951
0.0155,-0.004778809845
0.01552083333,-0.004792764783
0.01554166667,-0.00480619166
0.0155625,-0.0048173666
0.01558333333,-0.004828288686
0.01560416667,-0.004836862907
0.015625,-0.004847717471
0.01564583333,-0.004857706837
0.01566666667,-0.00487107411
0.0156875,-0.004883349873
0.01570833333,-0.004896786064
0.01572916667,-0.004907697439
0.01575,-0.004917635582
0.01577083333,-0.00492439419
0.01579166667,-0.004931346048
0.0158125,-0.004935522098
0.01583333333,-0.004941271618
0.01585416667,-0.00494604744
0.015875,-0.004952790681
0.01589583333,-0.004958670586
0.01591666667,-0.004966180306
0.0159375,-0.004972098395
0.01595833333,-0.004978482146
0.01597916667,-0.004981674254
0.016,-0.004985393025
0.01602083333,-0.004985829815
0.01604166667,-0.004987607244
0.0160625,-0.004987345543
0.01608333333,-0.004989442881
0.01610416667,-0.004989575595
0.016125,-0.004991910886
0.01614583333,-0.004992508795
0.01616666667,-0.004994331859
0.0161875,-0.004994697403
0.01620833333,-0.004996439442
0.01622916667,-0.004995637573
0.01625,-0.004995886236
0.01627083333,-0.00499270577
0.01629166667,-0.004990543239
0.0163125,-0.004985655658
0.01633333333,-0.004982743412
0.01635416667,-0.004978318699
0.016375,-0.004976482131
0.01639583333,-0.004972688854
0.01641666667,-0.004970805254
0.0164375,-0.004965941887
0.01645833333,-0.004961504601
0.01647916667,-0.0049539092
0.0165,-0.004947219044
0.01652083333,-0.004938270897
0.01654166667,-0.004931280855
0.0165625,-0.004923054017
0.01658333333,-0.004917244893
0.01660416667,-0.00490949722
0.016625,-0.004903816152
0.01664583333,-0.004894863348
0.01666666667,-0.004887335002
0.0166875,-0.004876508377
0.01670833333,-0.004866211209
0.01672916667,-0.004853401799
0.01675,-0.004842517432
0.01677083333,-0.00482980255
0.01679166667,-0.004820082337
0.0168125,-0.00480814185
0.01683333333,-0.004797716159
0.01685416667,-0.004784692079
0.016875,-0.004772593733
0.01689583333,-0.004757269751
0.01691666667,-0.004743781872
0.0169375,-0.004727079533
0.01695833333,-0.004712032154
0.01697916667,-0.004694063682
0.017,-0.004677902907
0.01702083333,-0.004659752361
0.01704166667,-0.004644352943
0.0170625,-0.004627836868
0.01708333333,-0.004614332691
0.01710416667,-0.004599404056
0.017125,-0.004586975556
0.01714583333,-0.004571821541
0.01716666667,-0.004558223765
0.0171875,-0.004540862981
0.01720833333,-0.004523559939
0.01722916667,-0.00450232951
0.01725,-0.004483107943
0.01727083333,-0.004463106394
0.01729166667,-0.004447715823
0.0173125,-0.00443415856
0.01733333333,-0.004424136598
0.01735416667,-0.004412086681
0.017375,-0.004400864244
0.01739583333,-0.004385518841
0.01741666667,-0.004370186944
0.0174375,-0.004351169802
0.01745833333,-0.004333898891
0.01747916667,-0.00431364635
0.0175,-0.004295056686
0.01752083333,-0.004274774343
0.01754166667,-0.004256580025
0.0175625,-0.004236445762
0.01758333333,-0.004219070077
0.01760416667,-0.004199028015
0.017625,-0.004180264194
0.01764583333,-0.004158621188
0.01766666667,-0.004137635697
0.0176875,-0.004113359377
0.01770833333,-0.00409104256
0.01772916667,-0.004065179732
0.01775,-0.004041166976
0.01777083333,-0.004014975391
0.01779166667,-0.003992345184
0.0178125,-0.003968176898
0.01783333333,-0.003947535995
0.01785416667,-0.003923553042
0.017875,-0.003901805496
0.01789583333,-0.003874219256
0.01791666667,-0.003848551074
0.0179375,-0.003818333847
0.01795833333,-0.003791925963
0.01797916667,-0.003763340646
0.018,-0.003737522755
0.01802083333,-0.003710259451
0.01804166667,-0.003684770549
0.0180625,-0.003655237146
0.01808333333,-0.003626841353
0.01810416667,-0.003594709327
0.018125,-0.003563332837
0.01814583333,-0.003528230591
0.01816666667,-0.003495132551
0.0181875,-0.003458858002
0.01820833333,-0.003424762515
0.01822916667,-0.00338704465
0.01825,-0.003350825282
0.01827083333,-0.003312235931
0.01829166667,-0.003274495713
0.0183125,-0.003234075615
0.01833333333,-0.003195855301
0.01835416667,-0.003154661041
0.018375,-0.003114382504
0.01839583333,-0.003070545848
0.01841666667,-0.003028445644
0.0184375,-0.002982503036
0.01845833333,-0.002938873135
0.01847916667,-0.00289145764
0.0185,-0.002846513409
0.01852083333,-0.002799236216
0.01854166667,-0.002754902467
0.0185625,-0.002706863452
0.01858333333,-0.002660554368
0.01860416667,-0.0026101158
0.018625,-0.002558795502
0.01864583333,-0.002504058881
0.01866666667,-0.002452798886
0.0186875,-0.002398590324
0.01870833333,-0.002349947346
0.01872916667,-0.002297106665
0.01875,-0.002247457625
0.01877083333,-0.002193221124
0.01879166667,-0.00213941955
0.0188125,-0.002079294529
0.01883333333,-0.002021359047
0.01885416667,-0.001958329929
0.018875,-0.001898326445
0.01889583333,-0.001836882671
0.01891666667,-0.001778746489
0.0189375,-0.001719245687
0.01895833333,-0.0016623314
0.01897916667,-0.001600593561
0.019,-0.00153993268
0.01902083333,-0.001474717981
0.01904166667,-0.001411468955
0.0190625,-0.001343471697
0.01908333333,-0.001276948256
0.01910416667,-0.001204452477
0.019125,-0.001131054247
0.01914583333,-0.001053394401
0.01916666667,-0.0009802784771
0.0191875,-0.0009066959028
0.01920833333,-0.0008393503958
0.01922916667,-0.000770420942
0.01925,-0.000702676829
0.01927083333,-0.0006268987781
0.01929166667,-0.0005499986582
0.0193125,-0.0004639531253
0.01933333333,-0.0003782619024
0.01935416667,-0.0002884362766
0.019375,-0.0002027183073
0.01939583333,-0.0001159669846
0.01941666667,-3.55634038e-05
0.0194375,4.508419806e-05
0.01945833333,0.0001225039887
0.01947916667,0.0002040683903
0.0195,0.0002865390852
0.01952083333,0.0003766025184
0.01954166667,0.0004670391791
0.0195625,0.0005626409547
0.01958333333,0.0006546375807
0.01960416667,0.0007463115035
0.019625,0.0008282357012
0.01964583333,0.000907751848
0.01966666667,0.0009784889407
0.0196875,0.001051673433
0.01970833333,0.001127580879
0.01972916667,0.001215407392
0.01975,0.001310669351
0.01977083333,0.001415893203
0.01979166667,0.00151888025
0.0198125,0.001621211995
0.01983333333,0.001715994906
0.01985416667,0.001809553825
0.019875,0.001900721807
0.01989583333,0.001991571626
0.01991666667,0.002076689387
0.0199375,0.002158205491
0.01995833333,0.00223084772
0.01997916667,0.002310117241
0.02,0.002502564341
0.02002083333,0.002614194527
0.02004166667,0.002741015051
0.0200625,0.002881722525
0.02008333333,0.003018206218
0.02010416667,0.003147681942
0.020125,0.003260460682
0.02014583333,0.00336660305
0.02016666667,0.003463449189
0.0201875,0.00356390886
0.02020833333,0.003663765267
0.02022916667,0.003773709526
0.02025,0.003887617961
0.02027083333,0.004014904611
0.02029166667,0.004146997817
0.0203125,0.004286632873
0.02033333333,0.004422540311
0.02035416667,0.004554899409
0.020375,0.004675146192
0.02039583333,0.004794183187
0.02041666667,0.004906735849
0.0204375,0.005026805215
0.02045833333,0.005145160016
0.02047916667,0.005268394016
0.0205,0.005389130674
0.02052083333,0.005513546523
0.02054166667,0.005640342832
0.0205625,0.005776176695
0.02058333333,0.005915261339
0.02060416667,0.006058157887
0.020625,0.006191445049
0.02064583333,0.006319239736
0.02066666667,0.006435108837
0.0206875,0.006552934647
0.02070833333,0.006673964672
0.02072916667,0.006812795065
0.02075,0.006963264663
0.02077083333,0.007131491788
0.02079166667,0.007302470505
0.0208125,0.007474372163
0.02083333333,0.007638243958
0.02085416667,0.007795988582
0.020875,0.007942346856
0.02089583333,0.008090604097
0.02091666667,0.008237769827
0.0209375,0.008397755213
0.02095833333,0.008569921367
0.02097916667,0.008762220852
0.021,0.008963786066
0.02102083333,0.009177943692
0.02104166667,0.009383796714
0.0210625,0.009584113024
0.02108333333,0.009766700678
0.02110416667,0.009939488955
0.021125,0.01010076329
0.02114583333,0.01026744395
0.02116666667,0.01044244785
0.0211875,0.0106365094
0.02120833333,0.01084490586
0.02122916667,0.01107188128
0.02125,0.01130103599
0.02127083333,0.01153458096
0.02129166667,0.01175463106
0.0213125,0.01196555328
0.02133333333,0.01216026582
0.02135416667,0.01234851219
0.021375,0.01252952497
0.02139583333,0.01272128522
0.02141666667,0.01292229909
0.0214375,0.01314047351
0.02145833333,0.01336845942
0.02147916667,0.01360738929
0.0215,0.01384212729
0.02152083333,0.01407295745
0.02154166667,0.01428919565
0.0215625,0.01449814904
0.02158333333,0.01469590142
0.02160416667,0.01489839051
0.021625,0.01510385424
0.02164583333,0.01532833092
0.02166666667,0.01556322165
0.0216875,0.01581726596
0.02170833333,0.01607405208
0.02172916667,0.01633382402
0.02175,0.01658130251
0.02177083333,0.01682055183
0.02179166667,0.01704661548
0.0218125,0.01727231964
0.02183333333,0.01749346405
0.02185416667,0.01772543229
0.021875,0.01796235517
0.02189583333,0.01821680926
0.02191666667,0.01848154142
0.0219375,0.01876539923
0.02195833333,0.01905714348
0.02197916667,0.01935878955
0.022,0.01964992844
0.02202083333,0.01993331872
0.02204166667,0.02019088715
0.0220625,0.02043734491
0.02208333333,0.02067255788
0.02210416667,0.02091526985
0.022125,0.02117000148
0.02214583333,0.02144803107
0.02216666667,0.02174067125
0.0221875,0.02205189504
0.02220833333,0.02236182615
0.02222916667,0.02267049812
0.02225,0.02295876108
0.02227083333,0.02323508635
0.02229166667,0.02348960564
0.0223125,0.0237391796
0.02233333333,0.02398818731
0.02235416667,0.02425410599
0.022375,0.02453719638
0.02239583333,0.02484572679
0.02241666667,0.02516498789
0.0224375,0.02549715899
0.02245833333,0.02582133934
0.02247916667,0.02614116296
0.0225,0.02644139901
0.02252083333,0.0267359335
0.02254166667,0.02701758221
0.0225625,0.02730521746
0.02258333333,0.02759440243
0.02260416667,0.02789978683
0.022625,0.02821507677
0.02264583333,0.02854791284
0.02266666667,0.02888343111
0.0226875,0.02922910452
0.02270833333,0.02956190147
0.02272916667,0.02989336848
0.02275,0.03020573407
0.02277083333,0.03051114827
0.02279166667,0.03080643341
0.0228125,0.03110577911
0.02283333333,0.03141004592
0.02285416667,0.03173382953
0.022875,0.03206589818
0.02289583333,0.03241373971
0.02291666667,0.03275667503
0.0229375,0.03309969604
0.02295833333,0.03342252225
0.02297916667,0.03373853117
0.023,0.03403668851
0.02302083333,0.03433506563
0.02304166667,0.03463242948
0.0230625,0.03494336456
0.02308333333,0.03526711836
0.02310416667,0.03561318293
0.023125,0.03596283495
0.02314583333,0.03632707894
0.02316666667,0.036681097
0.0231875,0.03703010827
0.02320833333,0.0373631604
0.02322916667,0.03768761829
0.02325,0.03799910471
0.02327083333,0.03831553459
0.02329166667,0.03862816468
0.0233125,0.03895436227
0.02333333333,0.03928597271
0.02335416667,0.03962837532
0.023375,0.0399677977
0.02339583333,0.04031318426
0.02341666667,0.04064375162
0.0234375,0.04097119719
0.02345833333,0.04128947109
0.02347916667,0.04160596803
0.0235,0.04191409796
0.02352083333,0.04222913459
0.02354166667,0.04253979772
0.0235625,0.04286643863
0.02358333333,0.04319708794
0.02360416667,0.04354509711
0.023625,0.04389668629
0.02364583333,0.04425536096
0.02366666667,0.04460190237
0.0236875,0.04494275525
0.02370833333,0.04526874423
0.02372916667,0.04559727386
0.02375,0.04592070356
0.02377083333,0.04626273736
0.02379166667,0.04660786688
0.0238125,0.04697432369
0.02383333333,0.04734317213
0.02385416667,0.04772614688
0.023875,0.04810468107
0.02389583333,0.04848900065
0.02391666667,0.04885934293
0.0239375,0.04922728613
0.02395833333,0.04958381504
0.02397916667,0.04994219169
0.024,0.05029631779
0.02402083333,0.05066353455
0.02404166667,0.05103337765
0.0240625,0.05141959712
0.02408333333,0.05180892348
0.02410416667,0.05220674351
0.024125,0.05260048807
0.02414583333,0.05299106985
0.02416666667,0.05336768925
0.0241875,0.05374252796
0.02420833333,0.05410457775
0.02422916667,0.05447426811
0.02425,0.05484154448
0.02427083333,0.05522646755
0.02429166667,0.05561483651
0.0243125,0.05601856858
0.02433333333,0.05642134696
0.02435416667,0.05682649463
0.024375,0.05722172931
0.02439583333,0.05761379004
0.02441666667,0.05798819289
0.0244375,0.05836545303
0.02445833333,0.05873970315
0.02447916667,0.05912964046
0.0245,0.05952573195
0.02452083333,0.05993964151
0.02454166667,0.06035122648
0.0245625,0.06076649949
0.02458333333,0.06116783619
0.02460416667,0.06156459823
0.024625,0.06194446981
0.02464583333,0.06232155859
0.02466666667,0.06268782169
0.0246875,0.06306066364
0.02470833333,0.06343656778
0.02472916667,0.06382790208
0.02475,0.06422232836
0.02477083333,0.06462827325
0.02479166667,0.06502556056
0.0248125,0.06542149931
0.02483333333,0.06580420583
0.02485416667,0.06618754566
0.024875,0.06655680388
0.02489583333,0.06692460924
0.02491666667,0.06727255881
0.0249375,0.06761921197
0.02495833333,0.06795988232
0.02497916667,0.06832519919
0.025,0.06871084124
0.02502083333,0.06913707405
0.02504166667,0.06957640499
0.0250625,0.07001968473
0.02508333333,0.07043921947
0.02510416667,0.0708353892
0.025125,0.07119666785
0.02514583333,0.07154898345
0.02516666667,0.07189112157
0.0251875,0.0722489208
0.02520833333,0.0726134032
0.02522916667,0.07300448418
0.02525,0.07340135425
0.02527083333,0.07381755859
0.02529166667,0.07423270494
0.0253125,0.07464689761
0.02533333333,0.07504683733
0.02535416667,0.07544443756
0.025375,0.07582781464
0.02539583333,0.07621821761
0.02541666667,0.07660141587
0.0254375,0.0769873485
0.02545833333,0.07736060023
0.02547916667,0.0777380988
0.0255,0.07810851187
0.02552083333,0.07849940658
0.02554166667,0.07889851928
0.0255625,0.07931623608
0.02558333333,0.07972863317
0.02560416667,0.08013022691
0.025625,0.08049861342
0.02564583333,0.08085246384
0.02566666667,0.08118642122
0.0256875,0.08153031766
0.02570833333,0.08188114315
0.02572916667,0.08225742728
0.02575,0.08263711631
0.02577083333,0.08303142339
0.02579166667,0.08341259509
0.0258125,0.08378795534
0.02583333333,0.08414272219
0.02585416667,0.08449202776
0.025875,0.08481936902
0.02589583333,0.08515271544
0.02591666667,0.08548177034
0.0259375,0.08583074808
0.02595833333,0.08618830144
0.02597916667,0.08656775951
0.026,0.08694368601
0.02602083333,0.08732184768
0.02604166667,0.08767706156
0.0260625,0.08801852912
0.02608333333,0.08833736181
0.02610416667,0.08865446597
0.026125,0.0889692232
0.02614583333,0.08930407465
0.02616666667,0.08964954317
0.0261875,0.09002159536
0.02620833333,0.09040015936
0.02622916667,0.09079181403
0.02625,0.09117753804
0.02627083333,0.09156338871
0.02629166667,0.09193188697
0.0263125,0.09229360521
0.02633333333,0.09263712168
0.02635416667,0.09298259765
0.026375,0.09332375228
0.02639583333,0.09368538111
0.02641666667,0.09406190366
0.0264375,0.09446497262
0.02645833333,0.09487940371
0.02647916667,0.09530670196
0.0265,0.09572394937
0.02652083333,0.09613206983
0.02654166667,0.09651158005
0.0265625,0.09688091278
0.02658333333,0.09723313898
0.02660416667,0.09759667516
0.026625,0.09796798974
0.02664583333,0.09836687893
0.02666666667,0.0987740308
0.0266875,0.09919846803
0.02670833333,0.09960728139
0.02672916667,0.1000081748
0.02675,0.10037902
0.02677083333,0.1007347703
0.02679166667,0.1010630876
0.0268125,0.1013917625
0.02683333333,0.1017060354
0.02685416667,0.1020315662
0.026875,0.1023591235
0.02689583333,0.1027082875
0.02691666667,0.1030616313
0.0269375,0.103434898
0.02695833333,0.1038053185
0.02697916667,0.1041743234
0.027,0.1045190692
0.02702083333,0.1048517674
0.02704166667,0.1051539034
0.0270625,0.1054522544
0.02708333333,0.1057454571
0.02710416667,0.1060574502
0.027125,0.1063838676
0.02714583333,0.1067443714
0.02716666667,0.1071107462
0.0271875,0.1074985564
0.02720833333,0.107874237
0.02722916667,0.1082435176
0.02725,0.1085850894
0.02727083333,0.1089075282
0.02729166667,0.1091988012
0.0273125,0.1094846725
0.02733333333,0.1097692698
0.02735416667,0.1100779474
0.027375,0.1104120314
0.02739583333,0.1107791364
0.02741666667,0.1111511365
0.0274375,0.1115283221
0.02745833333,0.1118735299
0.02747916667,0.1121956632
0.0275,0.1124854162
0.02752083333,0.1127680689
0.02754166667,0.1130473167
0.0275625,0.1133473814
0.02758333333,0.1136631966
0.02760416667,0.1140102521
0.027625,0.1143715233
0.02764583333,0.1147531793
0.02766666667,0.1151311547
0.0276875,0.115513511
0.02770833333,0.1158716679
0.02772916667,0.1162140891
0.02775,0.1165259704
0.02777083333,0.1168335974
0.02779166667,0.1171297729
0.0278125,0.1174439937
0.02783333333,0.117766507
0.02785416667,0.1181157678
0.027875,0.1184675694
0.02789583333,0.1188354194
0.02791666667,0.1191802919
0.0279375,0.1195178851
0.02795833333,0.1198269799
0.02797916667,0.1201142892
0.028,0.1203766987
0.02802083333,0.1206358001
0.02804166667,0.1208811775
0.0280625,0.1211511716
0.02808333333,0.121435903
0.02810416667,0.1217546165
0.028125,0.1220856309
0.02814583333,0.1224324629
0.02816666667,0.1227529347
0.0281875,0.1230599582
0.02820833333,0.1233277023
0.02822916667,0.1235818341
0.02825,0.1238230765
0.02827083333,0.1240907311
0.02829166667,0.1243673638
0.0283125,0.124677375
0.02833333333,0.1249928325
0.02835416667,0.125310868
0.028375,0.1256126463
0.02839583333,0.1259050518
0.02841666667,0.126163274
0.0284375,0.1264222264
0.02845833333,0.1266631931
0.02847916667,0.1269105524
0.0285,0.1271540821
0.02852083333,0.1274200231
0.02854166667,0.1276939511
0.0285625,0.1279958189
0.02858333333,0.1282931864
0.02860416667,0.1285956651
0.028625,0.1288653016
0.02864583333,0.1291223019
0.02866666667,0.1293286979
0.0286875,0.1295294911
0.02870833333,0.1297106147
0.02872916667,0.1299138665
0.02875,0.1301258057
0.02877083333,0.1303825378
0.02879166667,0.1306485981
0.0288125,0.1309336722
0.02883333333,0.1312195361
0.02885416667,0.1315018982
0.028875,0.1317533106
0.02889583333,0.13200894
0.02891666667,0.1322189271
0.0289375,0.1324270368
0.02895833333,0.1326213181
0.02897916667,0.1328341216
0.029,0.1330503374
0.02902083333,0.1333021224
0.02904166667,0.1335478574
0.0290625,0.13380602
0.02908333333,0.1340449452
0.02910416667,0.1342828572
0.029125,0.1344941854
0.02914583333,0.1347077787
0.02916666667,0.1348756552
0.0291875,0.1350295097
0.02920833333,0.1351328492
0.02922916667,0.1352345794
0.02925,0.1353209913
0.02927083333,0.1354423016
0.02929166667,0.1355976462
0.0293125,0.135774985
0.02933333333,0.1359624565
0.02935416667,0.1361303777
0.029375,0.1362547874
0.02939583333,0.136388585
0.02941666667,0.1364991516
0.0294375,0.1366521269
0.02945833333,0.1368255317
0.02947916667,0.1370568871
0.0295,0.1372698545
0.02952083333,0.1375173777
0.02954166667,0.137735635
0.0295625,0.1379775405
0.02958333333,0.1382287145
0.02960416667,0.1384635717
0.029625,0.1386895478
0.02964583333,0.1388647258
0.02966666667,0.1390171796
0.0296875,0.1391563118
0.02970833333,0.1393252313
0.02972916667,0.1395918429
0.02975,0.1398576647
0.02977083333,0.1401679516
0.02979166667,0.1404224783
0.0298125,0.1406491101
0.02983333333,0.1408441663
0.02985416667,0.141029343
0.029875,0.1412063539
0.02989583333,0.1414409578
0.02991666667,0.1415802836
0.0299375,0.1416135281
0.02995833333,0.1414474547
0.02997916667,0.1414303184
0.03,0.1496016681
0.03002083333,0.1462069452
0.03004166667,0.1423674375
0.0300625,0.1377852857
0.03008333333,0.132539019
0.03010416667,0.1262688488
0.030125,0.119061932
0.03014583333,0.1116666347
0.03016666667,0.1045196801
0.0301875,0.09811783582
0.03020833333,0.09246063977
0.03022916667,0.08756888658
0.03025,0.08286277205
0.03027083333,0.07789572328
0.03029166667,0.07182434201
0.0303125,0.06492906064
0.03033333333,0.05690327659
0.03035416667,0.04798113555
0.030375,0.03905886784
0.03039583333,0.03018716909
0.03041666667,0.02270369604
0.0304375,0.01565307938
0.03045833333,0.01079701073
0.03047916667,0.007091545966
0.0305,0.004642684478
0.03052083333,0.003647587262
0.03054166667,0.001313204411
0.0305625,-0.001588504063
0.03058333333,-0.006565530784
0.03060416667,-0.01260829717
0.030625,-0.0179420691
0.03064583333,-0.02201875672
0.03066666667,-0.0242435541
0.0306875,-0.02477942593
0.03070833333,-0.02386472188
0.03072916667,-0.02282206155
0.03075,-0.02267597057
0.03077083333,-0.02423047088
0.03079166667,-0.02728871256
0.0308125,-0.03228967264
0.03083333333,-0.03841029853
0.03085416667,-0.04499759153
0.030875,-0.0512797907
0.03089583333,-0.05663816631
0.03091666667,-0.06083954871
0.0309375,-0.06408953667
0.03095833333,-0.06738656759
0.03097916667,-0.0710259527
0.031,-0.07599612325
0.03102083333,-0.08223828673
0.03104166667,-0.08999359608
0.0310625,-0.09853993356
0.03108333333,-0.1071143374
0.03110416667,-0.115190357
0.031125,-0.1218625531
0.03114583333,-0.1272887737
0.03116666667,-0.1316257566
0.0311875,-0.1352113783
0.03120833333,-0.1391700804
0.03122916667,-0.1438229084
0.03125,-0.1496173143
0.03127083333,-0.1567406505
0.03129166667,-0.1644941419
0.0313125,-0.1721844375
0.03133333333,-0.1791667193
0.03135416667,-0.1845059842
0.031375,-0.1884906888
0.03139583333,-0.1910023987
0.03141666667,-0.1926900446
0.0314375,-0.194049716
0.03145833333,-0.196297273
0.03147916667,-0.1997152269
0.0315,-0.204361558
0.03152083333,-0.2100554109
0.03154166667,-0.2161249071
0.0315625,-0.2218410075
0.03158333333,-0.2263496816
0.03160416667,-0.2295600325
0.031625,-0.231503129
0.03164583333,-0.2323381305
0.03166666667,-0.2323830277
0.0316875,-0.2327441871
0.03170833333,-0.2334622294
0.03172916667,-0.2359798551
0.03175,-0.2385378331
0.03177083333,-0.2408804297
0.03179166667,-0.2433264554
0.0318125,-0.2453699261
0.03183333333,-0.2462058812
0.03185416667,-0.2454083115
0.031875,-0.2433419079
0.03189583333,-0.2407720387
0.03191666667,-0.2384791225
0.0319375,-0.2367099226
0.03195833333,-0.2371560186
0.03197916667,-0.2393193841
0.032,-0.2426048666
0.03202083333,-0.2461578101
0.03204166667,-0.2493614703
0.0320625,-0.2514073551
0.03208333333,-0.2523033917
0.03210416667,-0.2521685064
0.032125,-0.2516340613
0.03214583333,-0.25111112
0.03216666667,-0.2515545189
0.0321875,-0.2534407675
0.03220833333,-0.2566501498
0.03222916667,-0.261162132
0.03225,-0.2659192681
0.03227083333,-0.2703751624
0.03229166667,-0.273743093
0.0323125,-0.2758111358
0.03233333333,-0.2767427862
0.03235416667,-0.2765746415
0.032375,-0.2762836218
0.03239583333,-0.2764119804
0.03241666667,-0.2779652476
0.0324375,-0.2807855606
0.03245833333,-0.2849184871
0.03247916667,-0.2899768651
0.0325,-0.2950770855
0.03252083333,-0.3000325263
0.03254166667,-0.3042693734
0.0325625,-0.3077985048
0.03258333333,-0.3107005358
0.03260416667,-0.3133530915
0.032625,-0.3167602718
0.03264583333,-0.3214116991
0.03266666667,-0.3274452388
0.0326875,-0.3350227177
0.03270833333,-0.3435809314
0.03272916667,-0.3530803919
0.03275,-0.3625848293
0.03277083333,-0.3716376722
0.03279166667,-0.3801133037
0.0328125,-0.3879753649
0.03283333333,-0.3950736821
0.03285416667,-0.4018748701
0.032875,-0.4086365402
0.03289583333,-0.4156980515
0.03291666667,-0.4231193066
0.0329375,-0.4308580458
0.03295833333,-0.4387498796
0.03297916667,-0.4461824
0.033,-0.4531314373
0.03302083333,-0.4596763849
0.03304166667,-0.4651057124
0.0330625,-0.4703401625
0.03308333333,-0.4749030173
0.03310416667,-0.4796904922
0.033125,-0.4853721559
0.03314583333,-0.491523236
0.03316666667,-0.4988712966
0.0331875,-0.5067258477
0.03320833333,-0.5150039792
0.03322916667,-0.5232426524
0.03325,-0.5311158299
0.03327083333,-0.5381237268
0.03329166667,-0.5443567634
0.0333125,-0.5499714613
0.03333333333,-0.5551564693
0.03335416667,-0.5603211522
0.033375,-0.5654800534
0.03339583333,-0.5705917478
0.03341666667,-0.5755867958
0.0334375,-0.5803433657
0.03345833333,-0.5846094489
0.03347916667,-0.5877128243
0.0335,-0.5902801752
0.03352083333,-0.5917800069
0.03354166667,-0.5927344561
0.0335625,-0.5930227637
0.03358333333,-0.5933390856
0.03360416667,-0.5938900709
0.033625,-0.5946521163
0.03364583333,-0.5958557725
0.03366666667,-0.59698385
0.0336875,-0.5979151726
0.03370833333,-0.5984270573
0.03372916667,-0.5982493162
0.03375,-0.5974333286
0.03377083333,-0.5959173441
0.03379166667,-0.5939258337
0.0338125,-0.5918328166
0.03383333333,-0.5898295045
0.03385416667,-0.5882443786
0.033875,-0.5869510174
0.03389583333,-0.5861499906
0.03391666667,-0.5857694149
0.0339375,-0.5847348571
0.03395833333,-0.5836151838
0.03397916667,-0.5816879869
0.034,-0.5790001154
0.03402083333,-0.5758437514
0.03404166667,-0.5722062588
0.0340625,-0.5689191222
0.03408333333,-0.5656496882
0.03410416667,-0.562630713
0.034125,-0.5600938797
0.03414583333,-0.5577324629
0.03416666667,-0.555311203
0.0341875,-0.5526163578
0.03420833333,-0.5497069955
0.03422916667,-0.5462415218
0.03425,-0.5426160097
0.03427083333,-0.5387622714
0.03429166667,-0.5349018574
0.0343125,-0.5316917896
0.03433333333,-0.5291380286
0.03435416667,-0.5272772312
0.034375,-0.5261472464
0.03439583333,-0.5254230499
0.03441666667,-0.5250910521
0.0344375,-0.5246371031
0.03445833333,-0.524017334
0.03447916667,-0.5231102109
0.0345,-0.5220651031
0.03452083333,-0.5211996436
0.03454166667,-0.5203946829
0.0345625,-0.520278573
0.03458333333,-0.520767808
0.03460416667,-0.5219929218
0.034625,-0.5236265659
0.03464583333,-0.52565521
0.03466666667,-0.5272775888
0.0346875,-0.5286486745
0.03470833333,-0.529530108
0.03472916667,-0.5299333334
0.03475,-0.5299588442
0.03477083333,-0.5296174288
0.03479166667,-0.5298627615
0.0348125,-0.5302570462
0.03483333333,-0.5312419534
0.03485416667,-0.5326593518
0.034875,-0.5343752503
0.03489583333,-0.5359115005
0.03491666667,-0.5369696021
0.0349375,-0.5374299288
0.03495833333,-0.5368927717
0.03497916667,-0.5358089209
0.035,-0.5342391133
0.03502083333,-0.5325248837
0.03504166667,-0.5307270885
0.0350625,-0.5286402106
0.03508333333,-0.5267423987
0.03510416667,-0.5244082808
0.035125,-0.5217100978
0.03514583333,-0.5182912946
0.03516666667,-0.5140706897
0.0351875,-0.509341538
0.03520833333,-0.5039823651
0.03522916667,-0.4985531271
0.03525,-0.4933568537
0.03527083333,-0.488574028
0.03529166667,-0.4846601188
0.0353125,-0.4812470675
0.03533333333,-0.4787505567
0.03535416667,-0.476437211
0.035375,-0.4747478962
0.03539583333,-0.4729708433
0.03541666667,-0.471178025
0.0354375,-0.4693322778
0.03545833333,-0.4675239623
0.03547916667,-0.4662842155
0.0355,-0.4655735493
0.03552083333,-0.4660125673
0.03554166667,-0.4673659801
0.0355625,-0.4694952667
0.03558333333,-0.4721368551
0.03560416667,-0.4748685658
0.035625,-0.4776530862
0.03564583333,-0.4797873497
0.03566666667,-0.4816638827
0.0356875,-0.4831495583
0.03570833333,-0.4846106172
0.03572916667,-0.4860443771
0.03575,-0.4878132343
0.03577083333,-0.4897852838
0.03579166667,-0.4921649992
0.0358125,-0.4946873784
0.03583333333,-0.4967935085
0.03585416667,-0.4986783564
0.035875,-0.4994395375
0.03589583333,-0.4992900491
0.03591666667,-0.49844414
0.0359375,-0.4965777099
0.03595833333,-0.494422555
0.03597916667,-0.4920606017
0.036,-0.4894323647
0.03602083333,-0.4871985614
0.03604166667,-0.4850465059
0.0360625,-0.4826490879
0.03608333333,-0.479826659
0.03610416667,-0.476277411
0.036125,-0.4721340537
0.03614583333,-0.4672447443
0.03616666667,-0.4617951512
0.0361875,-0.4561489522
0.03620833333,-0.4506222904
0.03622916667,-0.4455628097
0.03625,-0.4409758449
0.03627083333,-0.4370122254
0.03629166667,-0.4335342348
0.0363125,-0.4301319122
0.03633333333,-0.4266466498
0.03635416667,-0.4228718579
0.036375,-0.4187735617
0.03639583333,-0.4144675136
0.03641666667,-0.4098754525
0.0364375,-0.4054462016
0.03645833333,-0.4016525447
0.03647916667,-0.3984416127
0.0365,-0.3960246146
0.03652083333,-0.3941238821
0.03654166667,-0.3926724195
0.0365625,-0.391417563
0.03658333333,-0.3898762167
0.03660416667,-0.3882062435
0.036625,-0.3864070773
0.03664583333,-0.3845266998
0.03666666667,-0.3827560544
0.0366875,-0.3817107081
0.03670833333,-0.3813100159
0.03672916667,-0.3821116984
0.03675,-0.3834828138
0.03677083333,-0.3852838576
0.03679166667,-0.3873322904
0.0368125,-0.3886327446
0.03683333333,-0.3896089792
0.03685416667,-0.3897812068
0.036875,-0.3897457421
0.03689583333,-0.3894047737
0.03691666667,-0.389183253
0.0369375,-0.3896267116
0.03695833333,-0.3903807402
0.03697916667,-0.3914338052
0.037,-0.3924211562
0.03702083333,-0.3934893608
0.03704166667,-0.3938032389
0.0370625,-0.3932600915
0.03708333333,-0.3921652138
0.03710416667,-0.39019835
0.037125,-0.3878833354
0.03714583333,-0.3856273293
0.03716666667,-0.3837397397
0.0371875,-0.3825578988
0.03720833333,-0.3823316991
0.03722916667,-0.3825385869
0.03725,-0.3827344775
0.03727083333,-0.3825078905
0.03729166667,-0.3813723326
0.0373125,-0.3793963194
0.03733333333,-0.3765408993
0.03735416667,-0.3733787835
0.037375,-0.3699493408
0.03739583333,-0.3669087589
0.03741666667,-0.3642522693
0.0374375,-0.3624057472
0.03745833333,-0.3611786962
0.03747916667,-0.360239327
0.0375,-0.3590545356
0.03752083333,-0.3571632802
0.03754166667,-0.3547088504
0.0375625,-0.3512306511
0.03758333333,-0.3472598195
0.03760416667,-0.3432162106
0.037625,-0.3395057619
0.03764583333,-0.3365270495
0.03766666667,-0.3345853388
0.0376875,-0.3339206278
0.03770833333,-0.3339822888
0.03772916667,-0.3341664076
0.03775,-0.3339855671
0.03777083333,-0.3331545293
0.03779166667,-0.3313330114
0.0378125,-0.3288533986
0.03783333333,-0.3256873488
0.03785416667,-0.3225230575
0.037875,-0.3201630414
0.03789583333,-0.3182986379
0.03791666667,-0.3171389103
0.0379375,-0.3164447248
0.03795833333,-0.3158585131
0.03797916667,-0.3150405288
0.038,-0.3134423196
0.03802083333,-0.3110998869
0.03804166667,-0.3079622984
0.0380625,-0.3044475317
0.03808333333,-0.3007052243
0.03810416667,-0.2971345484
0.038125,-0.2941313088
0.03814583333,-0.2918536067
0.03816666667,-0.290164113
0.0381875,-0.2888891995
0.03820833333,-0.2873678803
0.03822916667,-0.2850495279
0.03825,-0.2819077075
0.03827083333,-0.2777387202
0.03829166667,-0.2727794349
0.0383125,-0.2675870657
0.03833333333,-0.2625848949
0.03835416667,-0.2581406236
0.038375,-0.2546567321
0.03839583333,-0.2519263923
0.03841666667,-0.249617368
0.0384375,-0.2471641004
0.03845833333,-0.244212836
0.03847916667,-0.2399843633
0.0385,-0.2347958982
0.03852083333,-0.2284170985
0.03854166667,-0.2213101387
0.0385625,-0.2141467184
0.03858333333,-0.2074062824
0.03860416667,-0.2014691085
0.038625,-0.1965683252
0.03864583333,-0.1922448277
0.03866666667,-0.1884275377
0.0386875,-0.1844837815
0.03870833333,-0.1798025966
0.03872916667,-0.1743872166
0.03875,-0.1683619916
0.03877083333,-0.1622202396
0.03879166667,-0.1559305638
0.0388125,-0.150689438
0.03883333333,-0.1462050974
0.03885416667,-0.1427736133
0.038875,-0.1404162049
0.03889583333,-0.1384323239
0.03891666667,-0.1370086372
0.0389375,-0.1351214647
0.03895833333,-0.1326921582
0.03897916667,-0.1299441606
0.039,-0.1265127659
0.03902083333,-0.1230875701
0.03904166667,-0.1196426898
0.0390625,-0.1165234596
0.03908333333,-0.1140025258
0.03910416667,-0.1119043753
0.039125,-0.1097139195
0.03914583333,-0.1068159416
0.03916666667,-0.1030252576
0.0391875,-0.09754257649
0.03920833333,-0.09023086727
0.03922916667,-0.08181443065
0.03925,-0.07232517004
0.03927083333,-0.06267279387
0.03929166667,-0.05347894132
0.0393125,-0.04492011666
0.03933333333,-0.03746456653
0.03935416667,-0.03060093895
0.039375,-0.02387514338
0.03939583333,-0.01676950976
0.03941666667,-0.0090778796
0.0394375,-0.0008648578078
0.03945833333,0.00775886327
0.03947916667,0.01617508382
0.0395,0.02401411161
0.03952083333,0.03061975539
0.03954166667,0.03577182069
0.0395625,0.03947259113
0.03958333333,0.04190252721
0.03960416667,0.04360717535
0.039625,0.04517962039
0.03964583333,0.04734450579
0.03966666667,0.05015130714
0.0396875,0.05394357815
0.03970833333,0.05819573253
0.03972916667,0.06234274805
0.03975,0.06619525701
0.03977083333,0.06905710697
0.03979166667,0.07084955275
0.0398125,0.07216092944
0.03983333333,0.07334863394
0.03985416667,0.0750143379
0.039875,0.07775454223
0.03989583333,0.08137388527
0.03991666667,0.08657010645
0.0399375,0.09275310487
0.03995833333,0.09930490702
0.03997916667,0.1061114594
0.04,0.1123213321
0.04002083333,0.1181609184
0.04004166667,0.1231480241
0.0400625,0.1278229654
0.04008333333,0.1326131076
0.04010416667,0.1378349364
0.040125,0.1439215839
0.04014583333,0.1508640796
0.04016666667,0.1587608606
0.0401875,0.1670186818
0.04020833333,0.1754101962
0.04022916667,0.1833419502
0.04025,0.1905181706
0.04027083333,0.1964572817
0.04029166667,0.2014367133
0.0403125,0.2058404088
0.04033333333,0.2103191316
0.04035416667,0.2156240046
0.040375,0.2220433652
0.04039583333,0.2299897522
0.04041666667,0.2391079217
0.0404375,0.2488606721
0.04045833333,0.2585839331
0.04047916667,0.2672958076
0.0405,0.2747242451
0.04052083333,0.2806122601
0.04054166667,0.2852214873
0.0405625,0.2894399762
0.04058333333,0.2937641144
0.04060416667,0.2991429865
0.040625,0.3055737913
0.04064583333,0.3133476377
0.04066666667,0.321365118
0.0406875,0.3277472854
0.04070833333,0.3338403404
0.04072916667,0.3386522233
0.04075,0.3416284919
0.04077083333,0.3445931077
0.04079166667,0.3466475308
0.0408125,0.3496095538
0.04083333333,0.3533879519
0.04085416667,0.3588524759
0.040875,0.3671219349
0.04089583333,0.3764434755
0.04091666667,0.386253655
0.0409375,0.3956229091
0.04095833333,0.403891623
0.04097916667,0.4108028412
0.041,0.4164317548
0.04102083333,0.4212724864
0.04104166667,0.4261413813
0.0410625,0.43163234
0.04108333333,0.438023299
0.04110416667,0.4455367327
0.041125,0.453622818
0.04114583333,0.4619350731
0.04116666667,0.4694549143
0.0411875,0.4755907059
0.04120833333,0.4799266458
0.04122916667,0.4825972319
0.04125,0.4842573106
0.04127083333,0.485524267
0.04129166667,0.4877966046
0.0413125,0.49039644
0.04133333333,0.4938374162
0.04135416667,0.49828282
0.041375,0.5029062629
0.04139583333,0.5074061155
0.04141666667,0.5107699633
0.0414375,0.5126273632
0.04145833333,0.5126755238
0.04147916667,0.5118269324
0.0415,0.5105853677
0.04152083333,0.5098277926
0.04154166667,0.5100166798
0.0415625,0.5116855502
0.04158333333,0.514610827
0.04160416667,0.5183787942
0.041625,0.522254765
0.04164583333,0.5253899693
0.04166666667,0.5272892714
0.0416875,0.5276101232
0.04170833333,0.52646029
0.04172916667,0.5248486996
0.04175,0.5234363675
0.04177083333,0.5229697227
0.04179166667,0.5239444375
0.0418125,0.5263755918
0.04183333333,0.5300289989
0.04185416667,0.534365356
0.041875,0.5386402011
0.04189583333,0.5435882211
0.04191666667,0.5488857031
0.0419375,0.5533870459
0.04195833333,0.5583591461
0.04197916667,0.5630455017
0.042,0.5682211518
0.04202083333,0.5733784437
0.04204166667,0.5792150497
0.0420625,0.5856816769
0.04208333333,0.5919947624
0.04210416667,0.5976892114
0.042125,0.6019043922
0.04214583333,0.6045593023
0.04216666667,0.6051340699
0.0421875,0.6043764949
0.04220833333,0.6025787592
0.04222916667,0.6008240581
0.04225,0.5999908447
0.04227083333,0.6000344753
0.04229166667,0.6011775732
0.0423125,0.603079319
0.04233333333,0.6051692963
0.04235416667,0.6066287756
0.042375,0.6067826748
0.04239583333,0.6056236029
0.04241666667,0.6030099392
0.0424375,0.599843502
0.04245833333,0.5966294408
0.04247916667,0.5940685272
0.0425,0.5931824446
0.04252083333,0.5941234827
0.04254166667,0.5964281559
0.0425625,0.5999177694
0.04258333333,0.6038262248
0.04260416667,0.6075536013
0.042625,0.6105130911
0.04264583333,0.6125090122
0.04266666667,0.6136498451
0.0426875,0.6143254638
0.04270833333,0.615234971
0.04272916667,0.6167775393
0.04275,0.6194138527
0.04277083333,0.62304914
0.04279166667,0.627507031
0.0428125,0.6322583556
0.04283333333,0.6368187666
0.04285416667,0.6410752535
0.042875,0.6442791224
0.04289583333,0.6469525099
0.04291666667,0.6487107873
0.0429375,0.6511188149
0.04295833333,0.6546217203
0.04297916667,0.6582118869
0.043,0.66302073
0.04302083333,0.6685567498
0.04304166667,0.674167037
0.0430625,0.6796364188
0.04308333333,0.6845699549
0.04310416667,0.6883941293
0.043125,0.6909272075
0.04314583333,0.6925063729
0.04316666667,0.6934329271
0.0431875,0.6940587163
0.04320833333,0.6951283216
0.04322916667,0.696478188
0.04325,0.6984387636
0.04327083333,0.7003444433
0.04329166667,0.7026768923
0.0433125,0.7045917511
0.04333333333,0.7060424089
0.04335416667,0.7067670822
0.043375,0.7068802714
0.04339583333,0.7065989375
0.04341666667,0.7059360743
0.0434375,0.7054898143
0.04345833333,0.705085218
0.04347916667,0.7051439881
0.0435,0.7054400444
0.04352083333,0.7056657076
0.04354166667,0.7059243321
0.0435625,0.7057422996
0.04358333333,0.7050643563
0.04360416667,0.7037913799
0.043625,0.70200634
0.04364583333,0.699805975
0.04366666667,0.697673738
0.0436875,0.6956919432
0.04370833333,0.6939525604
0.04372916667,0.6927933693
0.04375,0.6917274594
0.04377083333,0.6908742189
0.04379166667,0.6896209717
0.0438125,0.6878649592
0.04383333333,0.6854845285
0.04385416667,0.6821717024
0.043875,0.6783872247
0.04389583333,0.6741712093
0.04391666667,0.6697847843
0.0439375,0.6657969952
0.04395833333,0.6621188521
0.04397916667,0.6590874791
0.044,0.6565286517
0.04402083333,0.6539958119
0.04404166667,0.6509696245
0.0440625,0.6472808719
0.04408333333,0.6426727772
0.04410416667,0.6375547051
0.044125,0.6321519017
0.04414583333,0.6267794371
0.04416666667,0.6219195724
0.0441875,0.6175891757
0.04420833333,0.6141169667
0.04422916667,0.6110749841
0.04425,0.6083732843
0.04427083333,0.6058033109
0.04429166667,0.6028354168
0.0443125,0.5994736552
0.04433333333,0.5959552526
0.04435416667,0.5922310352
0.044375,0.5888038278
0.04439583333,0.5859469771
0.04441666667,0.5838054419
0.0444375,0.5825930238
0.04445833333,0.5820505023
0.04447916667,0.5823060274
0.0445,0.5829365253
0.04452083333,0.58357656
0.04454166667,0.5837258697
0.0445625,0.5835953355
0.04458333333,0.5833172202
0.04460416667,0.5829660892
0.044625,0.5831437707
0.04464583333,0.5837060213
0.04466666667,0.5848330259
0.0446875,0.5867900848
0.04470833333,0.5889986157
0.04472916667,0.5914954543
0.04475,0.5938025117
0.04477083333,0.5954694152
0.04479166667,0.596647203
0.0448125,0.5971943736
0.04483333333,0.5972648263
0.04485416667,0.5971327424
0.044875,0.5972238183
0.04489583333,0.5974966288
0.04491666667,0.5984562039
0.0449375,0.5997052193
0.04495833333,0.6008369327
0.04497916667,0.601662159
0.045,0.601541996
0.04502083333,0.600893259
0.04504166667,0.5993330479
0.0450625,0.5970703363
0.04508333333,0.5943347216
0.04510416667,0.5913019776
0.045125,0.5883721113
0.04514583333,0.5858270526
0.04516666667,0.5835480094
0.0451875,0.581317544
0.04520833333,0.5791790485
0.04522916667,0.5765922666
0.04525,0.5736426115
0.04527083333,0.5701972842
0.04529166667,0.5665166378
0.0453125,0.5629174113
0.04533333333,0.559540689
0.04535416667,0.5567117333
0.045375,0.554599762
0.04539583333,0.5534742475
0.04541666667,0.5532130003
0.0454375,0.5533946157
0.04545833333,0.553827107
0.04547916667,0.5542773604
0.0455,0.5545662045
0.04552083333,0.554805398
0.04554166667,0.5551148057
0.0455625,0.5555380583
0.04558333333,0.5564141273
0.04560416667,0.5579581857
0.045625,0.5599995852
0.04564583333,0.5625308752
0.04566666667,0.5655862689
0.0456875,0.5686741471
0.04570833333,0.5714927912
0.04572916667,0.5736779571
0.04575,0.5751040578
0.04577083333,0.5753631592
0.04579166667,0.5746694803
0.0458125,0.5738995671
0.04583333333,0.5730085969
0.04585416667,0.5723010898
0.045875,0.5717416406
0.04589583333,0.5713020563
0.04591666667,0.5708022118
0.0459375,0.569899857
0.04595833333,0.5681803823
0.04597916667,0.5655459166
0.046,0.5623521209
0.04602083333,0.5581359267
0.04604166667,0.5536233783
0.0460625,0.5490549207
0.04608333333,0.5446199775
0.04610416667,0.5404866338
0.046125,0.5367587805
0.04614583333,0.5331908464
0.04616666667,0.5296177864
0.0461875,0.5258482099
0.04620833333,0.5216703415
0.04622916667,0.5169717669
0.04625,0.5117557645
0.04627083333,0.5063993335
0.04629166667,0.5008693337
0.0463125,0.495772332
0.04633333333,0.4912371933
0.04635416667,0.4870826006
0.046375,0.4836131334
0.04639583333,0.4804280996
0.04641666667,0.4775610566
0.0464375,0.4744935334
0.04645833333,0.4711700678
0.04647916667,0.4675170183
0.0465,0.4636689126
0.04652083333,0.459836781
0.04654166667,0.4561207891
0.0465625,0.45301494
0.04658333333,0.450740546
0.04660416667,0.449213326
0.046625,0.4482626617
0.04664583333,0.4478729963
0.04666666667,0.4474009573
0.0466875,0.4467686713
0.04670833333,0.4458131492
0.04672916667,0.4446723461
0.04675,0.4435453415
0.04677083333,0.4428573549
0.04679166667,0.4425956011
0.0468125,0.4431872964
0.04683333333,0.4440881908
0.04685416667,0.4456471205
0.046875,0.4470442832
0.04689583333,0.4481880069
0.04691666667,0.4486926794
0.0469375,0.4477364123
0.04695833333,0.4463403821
0.04697916667,0.4445318878
0.047,0.4423834085
0.04702083333,0.4404242039
0.04704166667,0.4387258291
0.0470625,0.4376100302
0.04708333333,0.4370136559
0.04710416667,0.4369250238
0.047125,0.4365208447
0.04714583333,0.435701251
0.04716666667,0.4339771271
0.0471875,0.4314539731
0.04720833333,0.4280694723
0.04722916667,0.4243192077
0.04725,0.4209404886
0.04727083333,0.4184688628
0.04729166667,0.4171385467
0.0473125,0.416895479
0.04733333333,0.4174388945
0.04735416667,0.4182636738
0.047375,0.4186513424
0.04739583333,0.4180078208
0.04741666667,0.4166141748
0.0474375,0.4142894447
0.04745833333,0.411370486
0.04747916667,0.4084741473
0.0475,0.4060840309
0.04752083333,0.4045118988
0.04754166667,0.4037542641
0.0475625,0.4037855566
0.04758333333,0.403994292
0.04760416667,0.4036853909
0.047625,0.402602762
0.04764583333,0.4005237818
0.04766666667,0.3973453045
0.0476875,0.3937577307
0.04770833333,0.3900911212
0.04772916667,0.3869943619
0.04775,0.38487643
0.04777083333,0.383854121
0.04779166667,0.3836332262
0.0478125,0.3838708997
0.04783333333,0.3837200403
0.04785416667,0.3828765154
0.047875,0.3810355961
0.04789583333,0.3778147101
0.04791666667,0.3743928671
0.0479375,0.3709599972
0.04795833333,0.3684827983
0.04797916667,0.366908282
0.048,0.3661718667
0.04802083333,0.3666257858
0.04804166667,0.3675692976
0.0480625,0.3687632084
0.04808333333,0.3699435592
0.04810416667,0.3703148663
0.048125,0.3701185584
0.04814583333,0.3691993952
0.04816666667,0.3679085076
0.0481875,0.366802752
0.04820833333,0.3659736514
0.04822916667,0.3657425344
0.04825,0.3662313521
0.04827083333,0.367520988
0.04829166667,0.3689569235
0.0483125,0.3701508939
0.04833333333,0.3704608083
0.04835416667,0.3696929216
0.048375,0.3677627146
0.04839583333,0.3648343682
0.04841666667,0.36155954
0.0484375,0.3585989177
0.04845833333,0.3561996818
0.04847916667,0.3544698954
0.0485,0.3535071611
0.04852083333,0.3526099622
0.04854166667,0.3511953652
0.0485625,0.3487136662
0.04858333333,0.3449788094
0.04860416667,0.340079546
0.048625,0.3340075612
0.04864583333,0.3273106515
0.04866666667,0.3209617436
0.0486875,0.3153037727
0.04870833333,0.3108015656
0.04872916667,0.3073793054
0.04875,0.3047152162
0.04877083333,0.3025964797
0.04879166667,0.3000354767
0.0488125,0.2966674268
0.04883333333,0.2925168872
0.04885416667,0.2874818742
0.048875,0.2826571465
0.04889583333,0.2774284482
0.04891666667,0.2722281814
0.0489375,0.2673242986
0.04895833333,0.2629253864
0.04897916667,0.2595121264
0.049,0.256206423
0.04902083333,0.2530043423
0.04904166667,0.2498355061
0.0490625,0.2450376898
0.04908333333,0.2393916547
0.04910416667,0.2333317995
0.049125,0.2264654934
0.04914583333,0.2195062637
0.04916666667,0.21244286
0.0491875,0.20558469
0.04920833333,0.1985866576
0.04922916667,0.1913379431
0.04925,0.1834543496
0.04927083333,0.1747182459
0.04929166667,0.1652382761
0.0493125,0.1548456103
0.04933333333,0.1437636316
0.04935416667,0.1323783547
0.049375,0.1214358062
0.04939583333,0.1113610193
0.04941666667,0.1024830192
0.0494375,0.09498003125
0.04945833333,0.08868140727
0.04947916667,0.08312382549
0.0495,0.07770191878
0.04952083333,0.07198303193
0.04954166667,0.06566572934
0.0495625,0.05908690393
0.04958333333,0.05265729874
0.04960416667,0.04696968943
0.049625,0.04267848283
0.04964583333,0.04003851116
0.04966666667,0.0389419049
0.0496875,0.039049685
0.04970833333,0.03988710791
0.04972916667,0.04042722285
0.04975,0.04010662436
0.04977083333,0.03847596422
0.04979166667,0.0353750363
0.0498125,0.03136494011
0.04983333333,0.02677690238
0.04985416667,0.02282883227
0.049875,0.01957089081
0.04989583333,0.01727650315
0.04991666667,0.01564965397
0.0499375,0.01362070814
0.04995833333,0.01177585404
0.04997916667,0.00875412114
0.05,0.004479403608
0.05002083333,-0.001101942849
0.05004166667,-0.008273507468
0.0500625,-0.01554465108
0.05008333333,-0.02348136716
0.05010416667,-0.03155044466
0.050125,-0.03834345192
0.05014583333,-0.04430457205
0.05016666667,-0.04897420853
0.0501875,-0.05365388468
0.05020833333,-0.0588863045
0.05022916667,-0.06504590064
0.05025,-0.07266847789
0.05027083333,-0.08112887293
0.05029166667,-0.09017769247
0.0503125,-0.0990024507
0.05033333333,-0.107056804
0.05035416667,-0.1141419485
0.050375,-0.120057866
0.05039583333,-0.1252799928
0.05041666667,-0.1302831024
0.0504375,-0.1361044645
0.05045833333,-0.1427864134
0.05047916667,-0.1507847458
0.0505,-0.1599425673
0.05052083333,-0.1694319993
0.05054166667,-0.1788652241
0.0505625,-0.1871928275
0.05058333333,-0.1941614896
0.05060416667,-0.1996589154
0.050625,-0.2041523457
0.05064583333,-0.2081612796
0.05066666667,-0.2125301212
0.0506875,-0.2179307342
0.05070833333,-0.2246343642
0.05072916667,-0.2327552587
0.05075,-0.2415702939
0.05077083333,-0.2504304647
0.05079166667,-0.2584822476
0.0508125,-0.2653489411
0.05083333333,-0.270698905
0.05085416667,-0.2746577859
0.050875,-0.2782648206
0.05089583333,-0.2816717923
0.05091666667,-0.2863560021
0.0509375,-0.2911147475
0.05095833333,-0.2961985171
0.05097916667,-0.3025313914
0.051,-0.3091541529
0.05102083333,-0.3155161142
0.05104166667,-0.3200451434
0.0510625,-0.3231044114
0.05108333333,-0.3244903088
0.05110416667,-0.3249910772
0.051125,-0.3253922164
0.05114583333,-0.3267855942
0.05116666667,-0.3293991089
0.0511875,-0.3325864971
0.05120833333,-0.3367361724
0.05122916667,-0.3413368165
0.05125,-0.34574911
0.05127083333,-0.3493958116
0.05129166667,-0.3518893123
0.0513125,-0.3530988097
0.05133333333,-0.35351789
0.05135416667,-0.3536431789
0.051375,-0.354409337
0.05139583333,-0.356304884
0.05141666667,-0.3596124649
0.0514375,-0.3642337322
0.05145833333,-0.3693299592
0.05147916667,-0.3744756877
0.0515,-0.3787183464
0.05152083333,-0.3818217814
0.05154166667,-0.3836241663
0.0515625,-0.3843465745
0.05158333333,-0.3848869205
0.05160416667,-0.3856417835
0.051625,-0.3873457313
0.05164583333,-0.3901958466
0.05166666667,-0.3943419755
0.0516875,-0.399202466
0.05170833333,-0.4040712118
0.05172916667,-0.4083221555
0.05175,-0.4113446474
0.05177083333,-0.4129210114
0.05179166667,-0.4131522477
0.0518125,-0.4126433134
0.05183333333,-0.4122407436
0.05185416667,-0.4126441181
0.051875,-0.4143015444
0.05189583333,-0.4167351425
0.05191666667,-0.4189530015
0.0519375,-0.4222176969
0.05195833333,-0.4249795675
0.05197916667,-0.4269947112
0.052,-0.4290814698
0.05202083333,-0.4307309985
0.05204166667,-0.4326660335
0.0520625,-0.4347294569
0.05208333333,-0.4383361042
0.05210416667,-0.4430067539
0.052125,-0.4491229951
0.05214583333,-0.4563159049
0.05216666667,-0.4639139771
0.0521875,-0.4712153077
0.05220833333,-0.4775694609
0.05222916667,-0.4826360941
0.05225,-0.4861271977
0.05227083333,-0.4886476398
0.05229166667,-0.4904883504
0.0523125,-0.4927015007
0.05233333333,-0.4956088066
0.05235416667,-0.4994133115
0.052375,-0.5043327808
0.05239583333,-0.5093659759
0.05241666667,-0.5142929554
0.0524375,-0.5183848739
0.05245833333,-0.521184504
0.05247916667,-0.5228626728
0.0525,-0.5236085057
0.05252083333,-0.5241847038
0.05254166667,-0.5253926516
0.0525625,-0.5278610587
0.05258333333,-0.5320487618
0.05260416667,-0.5380667448
0.052625,-0.5455433726
0.05264583333,-0.5537697673
0.05266666667,-0.5622668862
0.0526875,-0.5702450275
0.05270833333,-0.5774157643
0.05272916667,-0.5837154388
0.05275,-0.5893915892
0.05277083333,-0.5947972536
0.05279166667,-0.6003614068
0.0528125,-0.6063400507
0.05283333333,-0.6129344106
0.05285416667,-0.6198703051
0.052875,-0.6272019148
0.05289583333,-0.634209156
0.05291666667,-0.6407797337
0.0529375,-0.6471162438
0.05295833333,-0.6523740888
0.05297916667,-0.6575572491
0.053,-0.6624049544
0.05302083333,-0.667747736
0.05304166667,-0.67339921
0.0530625,-0.6799874902
0.05308333333,-0.6873831749
0.05310416667,-0.6956216693
0.053125,-0.7041984797
0.05314583333,-0.7123574615
0.05316666667,-0.71986413
0.0531875,-0.7266054749
0.05320833333,-0.7327094078
0.05322916667,-0.7382894158
0.05325,-0.7437034845
0.05327083333,-0.7489187717
0.05329166667,-0.7544195056
0.0533125,-0.7599874735
0.05333333333,-0.7653361559
0.05335416667,-0.7706413865
0.053375,-0.7753500342
0.05339583333,-0.7792388797
0.05341666667,-0.7821106315
0.0534375,-0.7839152217
0.05345833333,-0.7850755453
0.05347916667,-0.7854668498
0.0535,-0.785923481
0.05352083333,-0.7861491442
0.05354166667,-0.7866017222
0.0535625,-0.7873343825
0.05358333333,-0.7879031897
0.05360416667,-0.7883108854
0.053625,-0.7880931497
0.05364583333,-0.7873481512
0.05366666667,-0.7857269645
0.0536875,-0.7835847735
0.05370833333,-0.7809227109
0.05372916667,-0.778437376
0.05375,-0.7760387659
0.05377083333,-0.7736181617
0.05379166667,-0.7716689706
0.0538125,-0.7697022557
0.05383333333,-0.7677579522
0.05385416667,-0.7654151917
0.053875,-0.762645185
0.05389583333,-0.7592811584
0.05391666667,-0.7553296685
0.0539375,-0.7511687279
0.05395833333,-0.7467423677
0.05397916667,-0.7422921658
0.054,-0.7382770181
0.05402083333,-0.7348452806
0.05404166667,-0.7318432331
0.0540625,-0.7291410565
0.05408333333,-0.7263749242
0.05410416667,-0.7234870195
0.054125,-0.7201859355
0.05414583333,-0.7163805366
0.05416666667,-0.7123235464
0.0541875,-0.7082727551
0.05420833333,-0.7045226097
0.05422916667,-0.7012254
0.05425,-0.6984761357
0.05427083333,-0.6960847974
0.05429166667,-0.694023788
0.0543125,-0.6918408275
0.05433333333,-0.6897845864
0.05435416667,-0.687392056
0.054375,-0.6846631169
0.05439583333,-0.6818682551
0.05441666667,-0.6791021824
0.0544375,-0.6768004298
0.05445833333,-0.6750008464
0.05447916667,-0.674023807
0.0545,-0.6736363173
0.05452083333,-0.673784256
0.05454166667,-0.674167335
0.0545625,-0.6745846868
0.05458333333,-0.6747950912
0.05460416667,-0.674680829
0.054625,-0.6742382646
0.05464583333,-0.6735996604
0.05466666667,-0.6727500558
0.0546875,-0.6723846197
0.05470833333,-0.6723927855
0.05472916667,-0.6726536751
0.05475,-0.67339921
0.05477083333,-0.6741893888
0.05479166667,-0.6749355197
0.0548125,-0.6750430465
0.05483333333,-0.674716711
0.05485416667,-0.6736707091
0.054875,-0.6721000075
0.05489583333,-0.6699538827
0.05491666667,-0.6674666405
0.0549375,-0.6652016044
0.05495833333,-0.6630194187
0.05497916667,-0.661226213
0.055,-0.6594532728
0.05502083333,-0.657666862
0.05504166667,-0.6553071141
0.0550625,-0.6521484256
0.05508333333,-0.6483790278
0.05510416667,-0.6439524293
0.055125,-0.6393877864
0.05514583333,-0.6346216202
0.05516666667,-0.6301117539
0.0551875,-0.625841558
0.05520833333,-0.621904254
0.05522916667,-0.6183528304
0.05525,-0.6148001552
0.05527083333,-0.6112267971
0.05529166667,-0.6074345708
0.0553125,-0.6032697558
0.05533333333,-0.5993686914
0.05535416667,-0.5953500867
0.055375,-0.5922045112
0.05539583333,-0.590295136
0.05541666667,-0.5893138647
0.0554375,-0.5895311236
0.05545833333,-0.5903701186
0.05547916667,-0.5916668177
0.0555,-0.593085587
0.05552083333,-0.5942878723
0.05554166667,-0.5954328775
0.0555625,-0.5961482525
0.05558333333,-0.5967435241
0.05560416667,-0.5973864794
0.055625,-0.598418057
0.05564583333,-0.599927187
0.05566666667,-0.6019026637
0.0556875,-0.6042120457
0.05570833333,-0.60671556
0.05572916667,-0.6090568304
0.05575,-0.6108934283
0.05577083333,-0.6122120619
0.05579166667,-0.6127040982
0.0558125,-0.6120581031
0.05583333333,-0.6105592847
0.05585416667,-0.6085538864
0.055875,-0.6060707569
0.05589583333,-0.6036541462
0.05591666667,-0.6009609103
0.0559375,-0.5981987715
0.05595833333,-0.5953376293
0.05597916667,-0.591879189
0.056,-0.5877585411
0.05602083333,-0.5827770233
0.05604166667,-0.5770531893
0.0560625,-0.5711472631
0.05608333333,-0.5652281046
0.05610416667,-0.5597000122
0.056125,-0.5544800162
0.05614583333,-0.5497574806
0.05616666667,-0.545435071
0.0561875,-0.5411856174
0.05620833333,-0.5368944407
0.05622916667,-0.5323727727
0.05625,-0.5275896788
0.05627083333,-0.5224883556
0.05629166667,-0.51720047
0.0563125,-0.5120137334
0.05633333333,-0.5071966648
0.05635416667,-0.5028729439
0.056375,-0.4990501404
0.05639583333,-0.4957124293
0.05641666667,-0.4927643538
0.0564375,-0.4899192154
0.05645833333,-0.4869547188
0.05647916667,-0.4839101136
0.0565,-0.4806719422
0.05652083333,-0.477314353
0.05654166667,-0.474180609
0.0565625,-0.4713953137
0.05658333333,-0.4692605734
0.05660416667,-0.4677922726
0.056625,-0.4669421613
0.05664583333,-0.4668064117
0.05666666667,-0.4666068256
0.0566875,-0.4666331112
0.05670833333,-0.4661864936
0.05672916667,-0.4654695988
0.05675,-0.4645473361
0.05677083333,-0.4634408951
0.05679166667,-0.4627301693
0.0568125,-0.4626181126
0.05683333333,-0.4634965956
0.05685416667,-0.4650851786
0.056875,-0.4672607183
0.05689583333,-0.4695662856
0.05691666667,-0.4714398384
0.0569375,-0.4724500775
0.05695833333,-0.4722964168
0.05697916667,-0.4710785449
0.057,-0.469117403
0.05702083333,-0.4672308862
0.05704166667,-0.4656401873
0.0570625,-0.464374274
0.05708333333,-0.463745892
0.05710416667,-0.4634769559
0.057125,-0.4633944631
0.05714583333,-0.4632074237
0.05716666667,-0.4625991583
0.0571875,-0.4616406858
0.05720833333,-0.4595989585
0.05722916667,-0.4570136368
0.05725,-0.4541997612
0.05727083333,-0.4515556693
0.05729166667,-0.4495808482
0.0573125,-0.4481680393
0.05733333333,-0.4475025237
0.05735416667,-0.4474041462
0.057375,-0.4472876191
0.05739583333,-0.4469644427
0.05741666667,-0.4457196891
0.0574375,-0.4437223673
0.05745833333,-0.4408886731
0.05747916667,-0.4370359182
0.0575,-0.4337057769
0.05752083333,-0.430418998
0.05754166667,-0.4280182123
0.0575625,-0.426523298
0.05758333333,-0.4255057573
0.05760416667,-0.424775064
0.057625,-0.4238244891
0.05764583333,-0.422190696
0.05766666667,-0.4198292792
0.0576875,-0.4166538417
0.05770833333,-0.4128333926
0.05772916667,-0.4087968469
0.05775,-0.4049082398
0.05777083333,-0.4014641345
0.05779166667,-0.398575902
0.0578125,-0.3962503672
0.05783333333,-0.3940296769
0.05785416667,-0.3916769326
0.057875,-0.3885781169
0.05789583333,-0.3847386539
0.05791666667,-0.3801300228
0.0579375,-0.3748317659
0.05795833333,-0.3693929017
0.05797916667,-0.3641777635
0.058,-0.3594861329
0.05802083333,-0.3555854857
0.05804166667,-0.3523552418
0.0580625,-0.3496361077
0.05808333333,-0.3469937444
0.05810416667,-0.3439342976
0.058125,-0.3403725624
0.05814583333,-0.3358239233
0.05816666667,-0.3304567039
0.0581875,-0.3250528276
0.05820833333,-0.3197159469
0.05822916667,-0.3151663244
0.05825,-0.3115256429
0.05827083333,-0.3089970946
0.05829166667,-0.3074909151
0.0583125,-0.3065577447
0.05833333333,-0.3056183755
0.05835416667,-0.3044385314
0.058375,-0.3026192486
0.05839583333,-0.3000507951
0.05841666667,-0.2969041467
0.0584375,-0.2934371829
0.05845833333,-0.2901610732
0.05847916667,-0.2873983979
0.0585,-0.2851415277
0.05852083333,-0.2833245099
0.05854166667,-0.281714946
0.0585625,-0.2796072364
0.05858333333,-0.2768678665
0.05860416667,-0.2730030417
0.058625,-0.2681565285
0.05864583333,-0.2625672817
0.05866666667,-0.2566451728
0.0586875,-0.2507184744
0.05870833333,-0.2455807477
0.05872916667,-0.2414249033
0.05875,-0.2379608154
0.05877083333,-0.2351559699
0.05879166667,-0.2323631346
0.0588125,-0.2292892635
0.05883333333,-0.2257553637
0.05885416667,-0.221339345
0.058875,-0.2162986398
0.05889583333,-0.2109875381
0.05891666667,-0.2057949156
0.0589375,-0.2013438344
0.05895833333,-0.1977555454
0.05897916667,-0.195389986
0.059,-0.1937173456
0.05902083333,-0.1924907118
0.05904166667,-0.1911902428
0.0590625,-0.1892882586
0.05908333333,-0.1866028607
0.05910416667,-0.1826767772
0.059125,-0.1780133992
0.05914583333,-0.1727097929
0.05916666667,-0.1672689319
0.0591875,-0.1616190076
0.05920833333,-0.1562079191
0.05922916667,-0.1511070132
0.05925,-0.1457005292
0.05927083333,-0.1401625574
0.05929166667,-0.1342378855
0.0593125,-0.1276482344
0.05933333333,-0.1204561517
0.05935416667,-0.1127679124
0.059375,-0.1047187671
0.05939583333,-0.09661240876
0.05941666667,-0.08902230859
0.0594375,-0.08218154311
0.05945833333,-0.07632329315
0.05947916667,-0.07142062485
0.0595,-0.06729137152
0.05952083333,-0.06334281713
0.05954166667,-0.05938056856
0.0595625,-0.05490700901
0.05958333333,-0.04997430742
0.05960416667,-0.04476436973
0.059625,-0.03973418847
0.05964583333,-0.03522758558
0.05966666667,-0.03165823594
0.0596875,-0.02923382074
0.05970833333,-0.02783864178
0.05972916667,-0.02707898617
0.05975,-0.02641100436
0.05977083333,-0.02542400733
0.05979166667,-0.02348875068
0.0598125,-0.02057458833
0.05983333333,-0.01650536805
0.05985416667,-0.01176370494
0.059875,-0.006688512862
0.05989583333,-0.00214651227
0.05991666667,0.001936463639
0.0599375,0.005278835073
0.05995833333,0.00811602734
0.05997916667,0.01079611108
0.06,0.01402560808
0.06002083333,0.01807145029
0.06004166667,0.02301197127
0.0600625,0.0291017592
0.06008333333,0.035816174
0.06010416667,0.04278333113
0.060125,0.04946945608
0.06014583333,0.05561646074
0.06016666667,0.06086206436
0.0601875,0.06547356397
0.06020833333,0.06972591579
0.06022916667,0.07511784136
0.06025,0.08181935549
0.06027083333,0.09048347175
0.06029166667,0.1001736373
0.0603125,0.1109342128
0.06033333333,0.1228380129
0.06035416667,0.1347467452
0.060375,0.1453980058
0.06039583333,0.1544153094
0.06041666667,0.1617942601
0.0604375,0.1679229736
0.06045833333,0.1730767339
0.06047916667,0.1782832146
0.0605,0.1841314435
0.06052083333,0.190743193
0.06054166667,0.1983236521
0.0605625,0.2064630091
0.06058333333,0.2148513943
0.06060416667,0.2225959599
0.060625,0.2291835696
0.06064583333,0.234255597
0.06066666667,0.2378564924
0.0606875,0.2408972234
0.06070833333,0.2439936846
0.06072916667,0.2478168011
0.06075,0.2528709173
0.06077083333,0.2592923343
0.06079166667,0.2666430473
0.0608125,0.2744317353
0.06083333333,0.2817343473
0.06085416667,0.287966758
0.060875,0.2927174568
0.06089583333,0.2963853776
0.06091666667,0.2992422283
0.0609375,0.3020543456
0.06095833333,0.3057366312
0.06097916667,0.3103782833
0.061,0.3163608313
0.06102083333,0.3233515024
0.06104166667,0.3305802047
0.0610625,0.3376325965
0.06108333333,0.3437491357
0.06110416667,0.3484347761
0.061125,0.351942718
0.06114583333,0.3544802368
0.06116666667,0.3567121327
0.0611875,0.3595002294
0.06120833333,0.3621529341
0.06122916667,0.3661175668
0.06125,0.3720733821
0.06127083333,0.37896052
0.06129166667,0.3872105181
0.0613125,0.3955980539
0.06133333333,0.4042280614
0.06135416667,0.4117743969
0.061375,0.4189585447
0.06139583333,0.4261363149
0.06141666667,0.4337204397
0.0614375,0.4420445263
0.06145833333,0.4514444768
0.06147916667,0.4615097344
0.0615,0.472120434
0.06152083333,0.4823219478
0.06154166667,0.4914956689
0.0615625,0.498950392
0.06158333333,0.5044919848
0.06160416667,0.5082847476
0.061625,0.5108652711
0.06164583333,0.5125287771
0.06166666667,0.5142795444
0.0616875,0.5164994001
0.06170833333,0.5196969509
0.06172916667,0.523358047
0.06175,0.5274688601
0.06177083333,0.5311152935
0.06179166667,0.5336793661
0.0618125,0.534668386
0.06183333333,0.5339117646
0.06185416667,0.531806469
0.061875,0.5289899707
0.06189583333,0.5264030099
0.06191666667,0.5245258212
0.0619375,0.5239988565
0.06195833333,0.5247071981
0.06197916667,0.5262383223
0.062,0.527833879
0.06202083333,0.5290281177
0.06204166667,0.5293375254
0.0620625,0.5281680226
0.06208333333,0.5259281993
0.06210416667,0.5230065584
0.062125,0.5201352239
0.06214583333,0.5180842876
0.06216666667,0.5171619654
0.0621875,0.5176671743
0.06220833333,0.5190519691
0.06222916667,0.5209764838
0.06225,0.5227097869
0.06227083333,0.5235401392
0.06229166667,0.5235211849
0.0623125,0.5223731995
0.06233333333,0.5204703212
0.06235416667,0.5182600617
0.062375,0.51755023
0.06239583333,0.5186267495
0.06241666667,0.5197142363
0.0624375,0.5221309662
0.06245833333,0.5251048207
0.06247916667,0.5284619331
0.0625,0.5315690041
0.06252083333,0.5327961445
0.06254166667,0.5318130255
0.0625625,0.5296802521
0.06258333333,0.5274074078
0.06260416667,0.5253686905
0.062625,0.5242615938
0.06264583333,0.5242227316
0.06266666667,0.5256344676
0.0626875,0.5279738903
0.06270833333,0.5308603048
0.06272916667,0.5339238048
0.06275,0.5364804864
0.06277083333,0.5385198593
0.06279166667,0.5400575995
0.0628125,0.5411535501
0.06283333333,0.5421666503
0.06285416667,0.5433975458
0.062875,0.5453021526
0.06289583333,0.5476654172
0.06291666667,0.5504636168
0.0629375,0.5535381436
0.06295833333,0.5566893816
0.06297916667,0.5592542291
0.063,0.5612967014
0.06302083333,0.562775135
0.06304166667,0.5637224317
0.0630625,0.564458847
0.06308333333,0.5653126836
0.06310416667,0.5665220022
0.063125,0.5685122013
0.06314583333,0.5710074902
0.06316666667,0.5742246509
0.0631875,0.5777561665
0.06320833333,0.5813311934
0.06322916667,0.5846119523
0.06325,0.5874826312
0.06327083333,0.5898833871
0.06329166667,0.5917899013
0.0633125,0.5936061144
0.06333333333,0.5953729153
0.06335416667,0.5974634886
0.063375,0.5998885036
0.06339583333,0.6025239229
0.06341666667,0.605216682
0.0634375,0.6075350642
0.06345833333,0.6094680429
0.06347916667,0.6107978225
0.0635,0.611413002
0.06352083333,0.6111994386
0.06354166667,0.6106247902
0.0635625,0.6098719239
0.06358333333,0.6091328263
0.06360416667,0.6087650061
0.063625,0.6090479493
0.06364583333,0.6098421812
0.06366666667,0.6105780005
0.0636875,0.6111391783
0.06370833333,0.6110886335
0.06372916667,0.6104544401
0.06375,0.6093540788
0.06377083333,0.6079189181
0.06379166667,0.6064932942
0.0638125,0.6051823497
0.06383333333,0.6040429473
0.06385416667,0.6036092043
0.063875,0.6035987139
0.06389583333,0.6036121249
0.06391666667,0.6034206748
0.0639375,0.6027296782
0.06395833333,0.6015637517
0.06397916667,0.5996761322
0.064,0.5972346067
0.06402083333,0.5944720507
0.06404166667,0.5915514827
0.0640625,0.5888061523
0.06408333333,0.5861983299
0.06410416667,0.5841315389
0.064125,0.5822732449
0.06414583333,0.5804623365
0.06416666667,0.5783826113
0.0641875,0.5760622025
0.06420833333,0.5733681321
0.06422916667,0.570158124
0.06425,0.5668994188
0.06427083333,0.5635815263
0.06429166667,0.5606585145
0.0643125,0.5582903028
0.06433333333,0.5566164255
0.06435416667,0.5554959178
0.064375,0.5547397733
0.06439583333,0.5541198254
0.06441666667,0.5534508228
0.0644375,0.5526410937
0.06445833333,0.5516399741
0.06447916667,0.5506571531
0.0645,0.5497062206
0.06452083333,0.5491371155
0.06454166667,0.5487220287
0.0645625,0.5489071012
0.06458333333,0.5497309566
0.06460416667,0.5509741902
0.064625,0.5525789857
0.06464583333,0.5538998842
0.06466666667,0.5548292398
0.0646875,0.5554726124
0.06470833333,0.5555737615
0.06472916667,0.5555068851
0.06475,0.5553322434
0.06477083333,0.555349648
0.06479166667,0.555503428
0.0648125,0.5560130477
0.06483333333,0.5566616654
0.06485416667,0.5575196743
0.064875,0.5582150817
0.06489583333,0.5586134195
0.06491666667,0.5585695505
0.0649375,0.5578830838
0.06495833333,0.5568675399
0.06497916667,0.5557242036
0.065,0.5546352863
0.06502083333,0.5537308455
0.06504166667,0.5530301929
0.0650625,0.5526350737
0.06508333333,0.5521893501
0.06510416667,0.5514845848
0.065125,0.5504746437
0.06514583333,0.5486056805
0.06516666667,0.5461961031
0.0651875,0.5432323217
0.06520833333,0.5397183299
0.06522916667,0.5363478065
0.06525,0.5330443978
0.06527083333,0.5303307772
0.06529166667,0.5280518532
0.0653125,0.5264385343
0.06533333333,0.5251470208
0.06535416667,0.5238761902
0.065375,0.5226775408
0.06539583333,0.5212323666
0.06541666667,0.5197572708
0.0654375,0.518283546
0.06545833333,0.5169937611
0.06547916667,0.5160615444
0.0655,0.5156621933
0.06552083333,0.5162636638
0.06554166667,0.517480731
0.0655625,0.5193732977
0.06558333333,0.5215623379
0.06560416667,0.5238469839
0.065625,0.5259073377
0.06564583333,0.5275681615
0.06566666667,0.5291624069
0.0656875,0.529966414
0.06570833333,0.5308532715
0.06572916667,0.531403482
0.06575,0.5319257975
0.06577083333,0.5325059891
0.06579166667,0.5327872038
0.0658125,0.5331990719
0.06583333333,0.5333765745
0.06585416667,0.5331492424
0.065875,0.5322902203
0.06589583333,0.5304705501
0.06591666667,0.5277330279
0.0659375,0.524096787
0.06595833333,0.5199503303
0.06597916667,0.5155260563
0.066,0.5109450221
0.06602083333,0.5063199401
0.06604166667,0.5016607642
0.0660625,0.4968705773
0.06608333333,0.4918626547
0.06610416667,0.4864371419
0.066125,0.4804863632
0.06614583333,0.4741342664
0.06616666667,0.4674569368
0.0661875,0.4607368708
0.06620833333,0.4542967677
0.06622916667,0.4483807981
0.06625,0.4432733357
0.06627083333,0.4385241866
0.06629166667,0.4341841638
0.0663125,0.4299909472
0.06633333333,0.4257566035
0.06635416667,0.4214169085
0.066375,0.4167251587
0.06639583333,0.4120361209
0.06641666667,0.4073446095
0.0664375,0.4030090868
0.06645833333,0.3991095722
0.06647916667,0.3957387805
0.0665,0.3931533396
0.06652083333,0.3910880089
0.06654166667,0.3892943263
0.0665625,0.3873754144
0.06658333333,0.3854172528
0.06660416667,0.3833736777
0.066625,0.3811256588
0.06664583333,0.3789558411
0.06666666667,0.377102077
0.0666875,0.3756826818
0.06670833333,0.3749605119
0.06672916667,0.3750829697
0.06675,0.3757630587
0.06677083333,0.3770067394
0.06679166667,0.3784882426
0.0668125,0.3799439669
0.06683333333,0.3810769022
0.06685416667,0.3816094398
0.066875,0.3818130791
0.06689583333,0.3815230429
0.06691666667,0.3815609217
0.0669375,0.3817978203
0.06695833333,0.3824043274
0.06697916667,0.3838547766
0.067,0.3855851889
0.06702083333,0.3871968389
0.06704166667,0.3883123696
0.0670625,0.3884169161
0.06708333333,0.3877325654
0.06710416667,0.3862259984
0.067125,0.3841686845
0.06714583333,0.3820227087
0.06716666667,0.3800580502
0.0671875,0.378806293
0.06720833333,0.3783054352
0.06722916667,0.378665328
0.06725,0.3796789944
0.06727083333,0.3805274665
0.06729166667,0.3808341324
0.0673125,0.3803988099
0.06733333333,0.3790540397
0.06735416667,0.3770647943
0.067375,0.3748133481
0.06739583333,0.3729120195
0.06741666667,0.3716817796
0.0674375,0.3712487817
0.06745833333,0.3717437685
0.06747916667,0.3725616336
0.0675,0.3734320402
0.06752083333,0.3736935258
0.06754166667,0.3729589283
0.0675625,0.3712107241
0.06758333333,0.368450433
0.06760416667,0.3651465178
0.067625,0.362090379
0.06764583333,0.3596203029
0.06766666667,0.3581751585
0.0676875,0.3578947484
0.06770833333,0.3583949804
0.06772916667,0.3593591154
0.06775,0.3605995476
0.06777083333,0.3619107008
0.06779166667,0.3631173074
0.0678125,0.3638373613
0.06783333333,0.3649452329
0.06785416667,0.3664667606
0.067875,0.368553102
0.06789583333,0.3715297878
0.06791666667,0.3751811981
0.0679375,0.3794435263
0.06795833333,0.3839234114
0.06797916667,0.3883402944
0.068,0.3924905956
0.06802083333,0.3958738744
0.06804166667,0.398152411
0.0680625,0.3996203542
0.06808333333,0.4007073641
0.06810416667,0.4017724991
0.068125,0.4031254351
0.06814583333,0.4052056968
0.06816666667,0.4079295695
0.0681875,0.4110181332
0.06820833333,0.4137639403
0.06822916667,0.4156390429
0.06825,0.4164047241
0.06827083333,0.4160626233
0.06829166667,0.4149232209
0.0683125,0.4134821892
0.06833333333,0.4120248258
0.06835416667,0.4109686613
0.068375,0.410611093
0.06839583333,0.4107937515
0.06841666667,0.4115322232
0.0684375,0.4118740261
0.06845833333,0.4116675258
0.06847916667,0.4101763964
0.0685,0.4072117209
0.06852083333,0.4027852416
0.06854166667,0.3971613646
0.0685625,0.3910807371
0.06858333333,0.3851572871
0.06860416667,0.3797019124
0.068625,0.3751695752
0.06864583333,0.3713484704
0.06866666667,0.3678990006
0.0686875,0.3641805947
0.06870833333,0.3599446416
0.06872916667,0.3548802435
0.06875,0.3488277793
0.06877083333,0.3423179388
0.06879166667,0.3356255889
0.0688125,0.3295834064
0.06883333333,0.3244308829
0.06885416667,0.3207361996
0.068875,0.3183398545
0.06889583333,0.3168861568
0.06891666667,0.3159196377
0.0689375,0.3147303462
0.06895833333,0.3129642606
0.06897916667,0.3104136288
0.069,0.3071669936
0.06902083333,0.3036627769
0.06904166667,0.3007947505
0.0690625,0.299279809
0.06908333333,0.298417002
0.06910416667,0.2989147007
0.069125,0.2992212474
0.06914583333,0.2993076444
0.06916666667,0.2980341315
0.0691875,0.2951750159
0.06920833333,0.2905347943
0.06922916667,0.2840117216
0.06925,0.2759787142
0.06927083333,0.2672455907
0.06929166667,0.258194387
0.0693125,0.2495396286
0.06933333333,0.241248548
0.06935416667,0.2333375067
0.069375,0.2255834043
0.06939583333,0.2177295983
0.06941666667,0.2095769644
0.0694375,0.2009661049
0.06945833333,0.1920922399
0.06947916667,0.1832664758
0.0695,0.1747875363
0.06952083333,0.1671445072
0.06954166667,0.1606797427
0.0695625,0.155690074
0.06958333333,0.1521688402
0.06960416667,0.1496044695
0.069625,0.1474251002
0.06964583333,0.1451274306
0.06966666667,0.1422868669
0.0696875,0.1385368407
0.06970833333,0.1340624243
0.06972916667,0.1293503344
0.06975,0.1246653646
0.06977083333,0.1207207143
0.06979166667,0.1174973398
0.0698125,0.1150256246
0.06983333333,0.113013491
0.06985416667,0.1111900285
0.069875,0.1087633073
0.06989583333,0.1050315648
0.06991666667,0.1000408083
0.0699375,0.09377025068
0.06995833333,0.0864321515
0.06997916667,0.07884845138
0.07,0.07113979012
0.07002083333,0.06432730705
0.07004166667,0.05824477971
0.0700625,0.05221736431
0.07008333333,0.04661171883
0.07010416667,0.04021700099
0.070125,0.03309594467
0.07014583333,0.02412438206
0.07016666667,0.01349590346
0.0701875,0.002268132987
0.07020833333,-0.009419670328
0.07022916667,-0.020280689
0.07025,-0.02943462133
0.07027083333,-0.03696351126
0.07029166667,-0.04317278787
0.0703125,-0.0487918891
0.07033333333,-0.05436029285
0.07035416667,-0.06049573049
0.070375,-0.06762813032
0.07039583333,-0.07568801194
0.07041666667,-0.08487921208
0.0704375,-0.09443278611
0.07045833333,-0.1039774492
0.07047916667,-0.1129752994
0.0705,-0.120608069
0.07052083333,-0.126974225
0.07054166667,-0.1321672499
0.0705625,-0.1367961168
0.07058333333,-0.1414919198
0.07060416667,-0.1470799148
0.070625,-0.1538785249
0.07064583333,-0.1617221832
0.07066666667,-0.1705103666
0.0706875,-0.1795803159
0.07070833333,-0.1879146546
0.07072916667,-0.1952974051
0.07075,-0.2010932714
0.07077083333,-0.205789566
0.07079166667,-0.209679231
0.0708125,-0.2137647718
0.07083333333,-0.218752116
0.07085416667,-0.2249834985
0.070875,-0.232877925
0.07089583333,-0.24186939
0.07091666667,-0.2512426376
0.0709375,-0.2603149712
0.07095833333,-0.2691955268
0.07097916667,-0.2780064046
0.071,-0.2860158682
0.07102083333,-0.2930455804
0.07104166667,-0.3007074296
0.0710625,-0.3091365993
0.07108333333,-0.3195028901
0.07110416667,-0.3322930038
0.071125,-0.3464617729
0.07114583333,-0.3623052537
0.07116666667,-0.377962172
0.0711875,-0.3931900561
0.07120833333,-0.4073083401
0.07122916667,-0.4197151959
0.07125,-0.4309228957
0.07127083333,-0.4410447478
0.07129166667,-0.4508929551
0.0713125,-0.4609210789
0.07133333333,-0.4713065624
0.07135416667,-0.482052505
0.071375,-0.4926967323
0.07139583333,-0.502338171
0.07141666667,-0.5107041001
0.0714375,-0.5171906352
0.07145833333,-0.5215649605
0.07147916667,-0.5242188573
0.0715,-0.5255342126
0.07152083333,-0.5263155699
0.07154166667,-0.5273330808
0.0715625,-0.5289458632
0.07158333333,-0.5316290259
0.07160416667,-0.5348116755
0.071625,-0.5383548737
0.07164583333,-0.5414722562
0.07166666667,-0.5433502197
0.0716875,-0.5438581705
0.07170833333,-0.5428911448
0.07172916667,-0.5407903194
0.07175,-0.5382273793
0.07177083333,-0.535844028
0.07179166667,-0.5343517065
0.0718125,-0.534037292
0.07183333333,-0.5348686576
0.07185416667,-0.5363687873
0.071875,-0.5375359058
0.07189583333,-0.5379849076
0.07191666667,-0.5370956063
0.0719375,-0.5348997712
0.07195833333,-0.5317009091
0.07197916667,-0.5278687477
0.072,-0.5242769122
0.07202083333,-0.5215139389
0.07204166667,-0.5199611187
0.0720625,-0.5194311738
0.07208333333,-0.5197960734
0.07210416667,-0.5201957822
0.072125,-0.5203508139
0.07214583333,-0.5190560818
0.07216666667,-0.5160259604
0.0721875,-0.5123101473
0.07220833333,-0.5066431761
0.07222916667,-0.5005738139
0.07225,-0.4943829179
0.07227083333,-0.4898776114
0.07229166667,-0.4871644974
0.0723125,-0.4852953255
0.07233333333,-0.4843176305
0.07235416667,-0.4834818542
0.072375,-0.482317239
0.07239583333,-0.4801212251
0.07241666667,-0.4768256545
0.0724375,-0.4727603495
0.07245833333,-0.4684914052
0.07247916667,-0.4650337994
0.0725,-0.4629061222
0.07252083333,-0.4627362192
0.07254166667,-0.4642386734
0.0725625,-0.467212975
0.07258333333,-0.4710818529
0.07260416667,-0.4748463929
0.072625,-0.4782612324
0.07264583333,-0.4809015095
0.07266666667,-0.4829815328
0.0726875,-0.4849870205
0.07270833333,-0.4872612059
0.07272916667,-0.4904522896
0.07275,-0.4945794046
0.07277083333,-0.4997580051
0.07279166667,-0.5058293343
0.0728125,-0.5120919347
0.07283333333,-0.5183519721
0.07285416667,-0.5240539908
0.072875,-0.5289534926
0.07289583333,-0.5332162976
0.07291666667,-0.5367786288
0.0729375,-0.5403401256
0.07295833333,-0.5439544916
0.07297916667,-0.547970891
0.073,-0.5524366498
0.07302083333,-0.5574064255
0.07304166667,-0.5626554489
0.0730625,-0.5677141547
0.07308333333,-0.5725061893
0.07310416667,-0.5766385794
0.073125,-0.5802708864
0.07314583333,-0.5833684206
0.07316666667,-0.5861779451
0.0731875,-0.5891189575
0.07320833333,-0.5923166871
0.07322916667,-0.5959855914
0.07325,-0.6000913382
0.07327083333,-0.6043361425
0.07329166667,-0.6087034345
0.0733125,-0.6124424934
0.07333333333,-0.6156408191
0.07335416667,-0.6178330779
0.073375,-0.6192179322
0.07339583333,-0.6199754477
0.07341666667,-0.6202535629
0.0734375,-0.6205832958
0.07345833333,-0.6209691763
0.07347916667,-0.6214945316
0.0735,-0.6222627759
0.07352083333,-0.622749567
0.07354166667,-0.6227881312
0.0735625,-0.6222377419
0.07358333333,-0.6210041642
0.07360416667,-0.6192125082
0.073625,-0.6170666814
0.07364583333,-0.6146854162
0.07366666667,-0.6125183105
0.0736875,-0.610522151
0.07370833333,-0.6091059446
0.07372916667,-0.6080408096
0.07375,-0.6072083116
0.07377083333,-0.6061714888
0.07379166667,-0.6047973037
0.0738125,-0.602845788
0.07383333333,-0.6002920866
0.07385416667,-0.5972095132
0.073875,-0.5940110087
0.07389583333,-0.5909545422
0.07391666667,-0.5881087184
0.0739375,-0.585614264
0.07395833333,-0.5833793283
0.07397916667,-0.5812078118
0.074,-0.5789827108
0.07402083333,-0.5763691664
0.07404166667,-0.5732781291
0.0740625,-0.5697829723
0.07408333333,-0.5658966303
0.07410416667,-0.5618830919
0.074125,-0.5580464602
0.07414583333,-0.5544303656
0.07416666667,-0.551206708
0.0741875,-0.5482352376
0.07420833333,-0.5455784202
0.07422916667,-0.5431288481
0.07425,-0.5405046344
0.07427083333,-0.5377598405
0.07429166667,-0.5344859958
0.0743125,-0.5309861898
0.07433333333,-0.5272132158
0.07435416667,-0.5235770345
0.074375,-0.5204190016
0.07439583333,-0.5176371932
0.07441666667,-0.5157110691
0.0744375,-0.5144636631
0.07445833333,-0.5136995912
0.07447916667,-0.5132185221
0.0745,-0.5125675201
0.07452083333,-0.5120422244
0.07454166667,-0.5113112926
0.0745625,-0.5105816126
0.07458333333,-0.5098752379
0.07460416667,-0.5095227361
0.074625,-0.5097019076
0.07464583333,-0.5103179812
0.07466666667,-0.5115326643
0.0746875,-0.5129868388
0.07470833333,-0.5144194365
0.07472916667,-0.5155692697
0.07475,-0.5161684155
0.07477083333,-0.5163792372
0.07479166667,-0.5161122084
0.0748125,-0.5156112313
0.07483333333,-0.5151658058
0.07485416667,-0.5148673058
0.074875,-0.5147809982
0.07489583333,-0.5149919391
0.07491666667,-0.5152611136
0.0749375,-0.5154099464
0.07495833333,-0.5152813792
0.07497916667,-0.51464957
0.075,-0.5135111809
0.07502083333,-0.5118218064
0.07504166667,-0.5098504424
0.0750625,-0.5076864958
0.07508333333,-0.5055239797
0.07510416667,-0.5036329627
0.075125,-0.501960814
0.07514583333,-0.5005451441
0.07516666667,-0.4990744591
0.0751875,-0.4974555075
0.07520833333,-0.4955337048
0.07522916667,-0.4930843711
0.07525,-0.4902597368
0.07527083333,-0.4870964587
0.07529166667,-0.483922869
0.0753125,-0.4810176492
0.07533333333,-0.4786891639
0.07535416667,-0.4773802161
0.075375,-0.4766215086
0.07539583333,-0.476520896
0.07541666667,-0.4767483771
0.0754375,-0.4770453274
0.07545833333,-0.4772290289
0.07547916667,-0.4771093726
0.0755,-0.4768521786
0.07552083333,-0.4767615795
0.07554166667,-0.4769260585
0.0755625,-0.4775576293
0.07558333333,-0.4787239432
0.07560416667,-0.4804358184
0.075625,-0.4827441573
0.07564583333,-0.4852790833
0.07566666667,-0.4878614247
0.0756875,-0.4902219474
0.07570833333,-0.492117703
0.07572916667,-0.4935334325
0.07575,-0.4945333004
0.07577083333,-0.4952285588
0.07579166667,-0.4958247542
0.0758125,-0.4965531826
0.07583333333,-0.497279942
0.07585416667,-0.497951895
0.075875,-0.498373121
0.07589583333,-0.4981580675
0.07591666667,-0.4971277416
0.0759375,-0.4950646162
0.07595833333,-0.4918340743
0.07597916667,-0.4878339171
0.076,-0.4830490649
0.07602083333,-0.4779400229
0.07604166667,-0.4726217091
0.0760625,-0.4675206542
0.07608333333,-0.4625515938
0.07610416667,-0.4576602876
0.076125,-0.4528731406
0.07614583333,-0.4478006661
0.07616666667,-0.442425102
0.0761875,-0.436591208
0.07620833333,-0.4303782582
0.07622916667,-0.4239708185
0.07625,-0.4176216722
0.07627083333,-0.4117254317
0.07629166667,-0.4064739645
0.0763125,-0.4019721746
0.07633333333,-0.398176223
0.07635416667,-0.3946910203
0.076375,-0.3913853168
0.07639583333,-0.3880612254
0.07641666667,-0.3845677376
0.0764375,-0.3809290826
0.07645833333,-0.3775003552
0.07647916667,-0.374440819
0.0765,-0.3720983565
0.07652083333,-0.3707813025
0.07654166667,-0.3705133498
0.0765625,-0.3711922765
0.07658333333,-0.3724994063
0.07660416667,-0.3741202354
0.076625,-0.3757220805
0.07664583333,-0.3768788576
0.07666666667,-0.3776669502
0.0766875,-0.3781251609
0.07670833333,-0.3785664439
0.07672916667,-0.3792388439
0.07675,-0.3805662096
0.07677083333,-0.3826546073
0.07679166667,-0.3854481578
0.0768125,-0.3889031708
0.07683333333,-0.3925417662
0.07685416667,-0.3958458304
0.076875,-0.3983719349
0.07689583333,-0.4000209272
0.07691666667,-0.4006311297
0.0769375,-0.4005079567
0.07695833333,-0.3999674916
0.07697916667,-0.3995618224
0.077,-0.3994642496
0.07702083333,-0.3999331295
0.07704166667,-0.4006958604
0.0770625,-0.4015846252
0.07708333333,-0.4023179412
0.07710416667,-0.4023929834
0.077125,-0.4015559554
0.07714583333,-0.3998327255
0.07716666667,-0.3973380625
0.0771875,-0.3944140077
0.07720833333,-0.3915482759
0.07722916667,-0.3890561461
0.07725,-0.3873358071
0.07727083333,-0.3863268197
0.07729166667,-0.3858028948
0.0773125,-0.3855265379
0.07733333333,-0.384913981
0.07735416667,-0.3836341202
0.077375,-0.3813546896
0.07739583333,-0.3782661855
0.07741666667,-0.3745603263
0.0774375,-0.3708626032
0.07745833333,-0.3675439358
0.07747916667,-0.3647794127
0.0775,-0.3625724018
0.07752083333,-0.3608369827
0.07754166667,-0.3592217565
0.0775625,-0.3575063348
0.07758333333,-0.3553106189
0.07760416667,-0.35250476
0.077625,-0.348993659
0.07764583333,-0.3450616896
0.07766666667,-0.3409551978
0.0776875,-0.3370599747
0.07770833333,-0.3338158429
0.07772916667,-0.3314480484
0.07775,-0.3299171925
0.07777083333,-0.3288205862
0.07779166667,-0.3277438879
0.0778125,-0.3261494935
0.07783333333,-0.3235565126
0.07785416667,-0.3201011121
0.077875,-0.3158174753
0.07789583333,-0.3110536039
0.07791666667,-0.3063102663
0.0779375,-0.3019385636
0.07795833333,-0.2983995974
0.07797916667,-0.2955721021
0.078,-0.2933673561
0.07802083333,-0.2912400365
0.07804166667,-0.2887569666
0.0780625,-0.2856799066
0.07808333333,-0.2818787396
0.07810416667,-0.2773885727
0.078125,-0.2724272311
0.07814583333,-0.2675286829
0.07816666667,-0.2631932497
0.0781875,-0.2596858442
0.07820833333,-0.257280916
0.07822916667,-0.2558107078
0.07825,-0.2547776401
0.07827083333,-0.2537540793
0.07829166667,-0.2522679865
0.0783125,-0.2501471043
0.07833333333,-0.2473779023
0.07835416667,-0.2440443188
0.078375,-0.2404724061
0.07839583333,-0.2370953858
0.07841666667,-0.2342913151
0.0784375,-0.2321544439
0.07845833333,-0.2306264937
0.07847916667,-0.229332462
0.0785,-0.2277080119
0.07852083333,-0.2255858481
0.07854166667,-0.2224151492
0.0785625,-0.2182668597
0.07858333333,-0.2131729424
0.07860416667,-0.2073705047
0.078625,-0.2015115768
0.07864583333,-0.1959358007
0.07866666667,-0.1909156144
0.0786875,-0.1867322922
0.07870833333,-0.1829435527
0.07872916667,-0.1797836274
0.07875,-0.1763911992
0.07877083333,-0.1726202816
0.07879166667,-0.1684182733
0.0788125,-0.1635872722
0.07883333333,-0.1585190892
0.07885416667,-0.1535832882
0.078875,-0.1491666436
0.07889583333,-0.1456637681
0.07891666667,-0.143068552
0.0789375,-0.1413797289
0.07895833333,-0.1401182711
0.07897916667,-0.1387490779
0.079,-0.1369066536
0.07902083333,-0.1341811568
0.07904166667,-0.1308206022
0.0790625,-0.1267426014
0.07908333333,-0.1224414557
0.07910416667,-0.1183063239
0.079125,-0.1144914776
0.07914583333,-0.1112403572
0.07916666667,-0.1081048846
0.0791875,-0.1049457118
0.07920833333,-0.1010603756
0.07922916667,-0.09599758685
0.07925,-0.0896871388
0.07927083333,-0.082018435
0.07929166667,-0.07346174121
0.0793125,-0.06448429078
0.07933333333,-0.05569574609
0.07935416667,-0.04756432772
0.079375,-0.0404419899
0.07939583333,-0.03427225351
0.07941666667,-0.02887473255
0.0794375,-0.02377449907
0.07945833333,-0.01867616922
0.07947916667,-0.01319489442
0.0795,-0.007355604321
0.07952083333,-0.001292824745
0.07954166667,0.004669535905
0.0795625,0.009981054813
0.07958333333,0.01431067288
0.07960416667,0.01727988571
0.079625,0.01885055006
0.07964583333,0.01931221411
0.07966666667,0.01922837272
0.0796875,0.01914045215
0.07970833333,0.0196936354
0.07972916667,0.02105443366
0.07975,0.02331630886
0.07977083333,0.02627094649
0.07979166667,0.02916992642
0.0798125,0.03207053244
0.07983333333,0.03398727626
0.07985416667,0.0351495035
0.079875,0.0352496542
0.07989583333,0.0352030471
0.07991666667,0.03547819704
0.0799375,0.03672612086
0.07995833333,0.03913194686
0.07997916667,0.04269828647
0.08,0.04692525417
0.08002083333,0.05106375739
0.08004166667,0.05496731773
0.0800625,0.05804593116
0.08008333333,0.06045573577
0.08010416667,0.06207023561
0.080125,0.06350568682
0.08014583333,0.06528402865
0.08016666667,0.06794071943
0.0801875,0.07183454186
0.08020833333,0.07691679895
0.08022916667,0.08300630748
0.08025,0.0896891579
0.08027083333,0.09645301104
0.08029166667,0.1028060988
0.0803125,0.1083549038
0.08033333333,0.1129110828
0.08035416667,0.116836682
0.080375,0.1206494197
0.08039583333,0.125098139
0.08041666667,0.130698517
0.0804375,0.1377817094
0.08045833333,0.1461857855
0.08047916667,0.1553825438
0.0805,0.1646672934
0.08052083333,0.1732421815
0.08054166667,0.1804442108
0.0805625,0.1861359775
0.08058333333,0.1905224174
0.08060416667,0.19424209
0.080625,0.1981727034
0.08064583333,0.2028752118
0.08066666667,0.2089647204
0.0806875,0.216350168
0.08070833333,0.2246484011
0.08072916667,0.2332088351
0.08075,0.2410663366
0.08077083333,0.2479367256
0.08079166667,0.2530842721
0.0808125,0.2571132183
0.08083333333,0.2600553036
0.08085416667,0.2628668845
0.080875,0.2663800716
0.08089583333,0.2709001005
0.08091666667,0.2771927714
0.0809375,0.2846544683
0.08095833333,0.293482393
0.08097916667,0.3020942211
0.081,0.3093276322
0.08102083333,0.3152954578
0.08104166667,0.3191889226
0.0810625,0.3220214844
0.08108333333,0.3251208961
0.08110416667,0.3284833431
0.081125,0.332451582
0.08114583333,0.3379613757
0.08116666667,0.3450199664
0.0811875,0.3531631827
0.08120833333,0.3605450988
0.08122916667,0.3666029274
0.08125,0.3710999489
0.08127083333,0.3735611737
0.08129166667,0.3745383918
0.0813125,0.3743664324
0.08133333333,0.3740815222
0.08135416667,0.3743959963
0.081375,0.3759455085
0.08139583333,0.378849715
0.08141666667,0.3827809095
0.0814375,0.3872191906
0.08145833333,0.3911090791
0.08147916667,0.3938717544
0.0815,0.394967556
0.08152083333,0.3944443762
0.08154166667,0.3928533494
0.0815625,0.3908083141
0.08158333333,0.3893885612
0.08160416667,0.3891041279
0.081625,0.3903058767
0.08164583333,0.3927966654
0.08166666667,0.3960109353
0.0816875,0.3991402686
0.08170833333,0.4014184773
0.08172916667,0.4022221565
0.08175,0.4014100432
0.08177083333,0.399242878
0.08179166667,0.3963795304
0.0818125,0.393695116
0.08183333333,0.3919002712
0.08185416667,0.3914315403
0.081875,0.3924471438
0.08189583333,0.3945542276
0.08191666667,0.3971087933
0.0819375,0.3994371593
0.08195833333,0.4007283449
0.08197916667,0.4006779492
0.082,0.3992071152
0.08202083333,0.3967309296
0.08204166667,0.3939941227
0.0820625,0.3916528225
0.08208333333,0.3908107579
0.08210416667,0.3912970424
0.082125,0.3937111497
0.08214583333,0.3979157209
0.08216666667,0.4032769203
0.0821875,0.4098415375
0.08220833333,0.4152073562
0.08222916667,0.4188259244
0.08225,0.4208974838
0.08227083333,0.4220332205
0.08229166667,0.4232604802
0.0823125,0.4249756932
0.08233333333,0.4281184971
0.08235416667,0.4326425791
0.082375,0.4388114214
0.08239583333,0.4459848106
0.08241666667,0.4531698823
0.0824375,0.4596331716
0.08245833333,0.4645549059
0.08247916667,0.4681425095
0.0825,0.4704710245
0.08252083333,0.4723109901
0.08254166667,0.4742697179
0.0825625,0.477024138
0.08258333333,0.4812885523
0.08260416667,0.4869386852
0.082625,0.4937957823
0.08264583333,0.5013171434
0.08266666667,0.5088663101
0.0826875,0.5157904029
0.08270833333,0.5217847824
0.08272916667,0.5266426802
0.08275,0.5307300687
0.08277083333,0.5342321992
0.08279166667,0.5377203226
0.0828125,0.5416783094
0.08283333333,0.5461454988
0.08285416667,0.5513423681
0.082875,0.556717217
0.08289583333,0.5620296597
0.08291666667,0.5667319298
0.0829375,0.5704567432
0.08295833333,0.5731631517
0.08297916667,0.5749971271
0.083,0.5761435628
0.08302083333,0.5771883726
0.08304166667,0.578412652
0.0830625,0.5799673796
0.08308333333,0.5822378397
0.08310416667,0.5849305391
0.083125,0.5880643725
0.08314583333,0.5909640193
0.08316666667,0.593527019
0.0831875,0.5953451991
0.08320833333,0.596427083
0.08322916667,0.5969430208
0.08325,0.5969992876
0.08327083333,0.59717834
0.08329166667,0.5978078246
0.0833125,0.5991511941
0.08333333333,0.6008269191
0.08335416667,0.6027399302
0.083375,0.6043535471
0.08339583333,0.6053828001
0.08341666667,0.6055090427
0.0834375,0.6047986746
0.08345833333,0.6033164859
0.08347916667,0.6012870073
0.0835,0.599247396
0.08352083333,0.5974011421
0.08354166667,0.5960595012
0.0835625,0.5951004624
0.08358333333,0.5945342779
0.08360416667,0.5939177871
0.083625,0.5929777026
0.08364583333,0.5913250446
0.08366666667,0.5889895558
0.0836875,0.585909903
0.08370833333,0.5824183822
0.08372916667,0.5786811113
0.08375,0.5751770139
0.08377083333,0.5721319914
0.08379166667,0.5696763992
0.0838125,0.5678192377
0.08383333333,0.5662144423
0.08385416667,0.5644752383
0.083875,0.5623266697
0.08389583333,0.5595576167
0.08391666667,0.5561001301
0.0839375,0.552167356
0.08395833333,0.5479479432
0.08397916667,0.5438844562
0.084,0.5401204228
0.08402083333,0.5368107557
0.08404166667,0.5340040922
0.0840625,0.5315078497
0.08408333333,0.5290721059
0.08410416667,0.5265002847
0.084125,0.5235190392
0.08414583333,0.5199966431
0.08416666667,0.5161408186
0.0841875,0.5119917393
0.08420833333,0.5078600645
0.08422916667,0.504178524
0.08425,0.5009258389
0.08427083333,0.4984453022
0.08429166667,0.4966681898
0.0843125,0.4952575564
0.08433333333,0.4940577149
0.08435416667,0.4927214682
0.084375,0.4910830855
0.08439583333,0.489243865
0.08441666667,0.4871590137
0.0844375,0.4853049815
0.08445833333,0.4835164547
0.08447916667,0.4823276103
0.0845,0.4817266166
0.08452083333,0.4817128181
0.08454166667,0.4821593165
0.0845625,0.4828829765
0.08458333333,0.4836967289
0.08460416667,0.4843270481
0.084625,0.4845380783
0.08464583333,0.4844379425
0.08466666667,0.4840749502
0.0846875,0.4837628305
0.08470833333,0.483817637
0.08472916667,0.4841696024
0.08475,0.4851624072
0.08477083333,0.4864521623
0.08479166667,0.488070488
0.0848125,0.489557445
0.08483333333,0.4905487895
0.08485416667,0.4908903539
0.084875,0.4902974963
0.08489583333,0.4892593026
0.08491666667,0.4878001511
0.0849375,0.4864776134
0.08495833333,0.4854328334
0.08497916667,0.4846954346
0.085,0.4842907488
0.08502083333,0.4838825762
0.08504166667,0.4833860099
0.0850625,0.4824097157
0.08508333333,0.480728209
0.08510416667,0.4784681499
0.085125,0.4754821956
0.08514583333,0.4721993804
0.08516666667,0.4687181711
0.0851875,0.4653997123
0.08520833333,0.4624978304
0.08522916667,0.4599249959
0.08525,0.457637012
0.08527083333,0.4556725919
0.08529166667,0.4537937343
0.0853125,0.452172935
0.08533333333,0.4502087235
0.08535416667,0.4478917718
0.085375,0.4456407726
0.08539583333,0.4434755743
0.08541666667,0.4420216978
0.0854375,0.4412388206
0.08545833333,0.4413719773
0.08547916667,0.4426790476
0.0855,0.4446907341
0.08552083333,0.4472754598
0.08554166667,0.4499340057
0.0855625,0.4523143172
0.08558333333,0.4544872642
0.08560416667,0.4561906755
0.085625,0.4578162432
0.08564583333,0.4594047368
0.08566666667,0.4612208009
0.0856875,0.4635449648
0.08570833333,0.4662302136
0.08572916667,0.4692867696
0.08575,0.4722746909
0.08577083333,0.4748530984
0.08579166667,0.4767534733
0.0858125,0.4778147936
0.08583333333,0.4779989719
0.08585416667,0.4773271382
0.085875,0.4760610163
0.08589583333,0.4743816257
0.08591666667,0.472625196
0.0859375,0.4707454741
0.08595833333,0.4689902365
0.08597916667,0.4670264721
0.086,0.4647013545
0.08602083333,0.4616835117
0.08604166667,0.4577906132
0.0860625,0.4530029297
0.08608333333,0.4475283027
0.08610416667,0.4416750073
0.086125,0.4358919561
0.08614583333,0.4305926263
0.08616666667,0.4259264469
0.0861875,0.4219237268
0.08620833333,0.4184219539
0.08622916667,0.4152220488
0.08625,0.4120881855
0.08627083333,0.4086817503
0.08629166667,0.4047928154
0.0863125,0.400339514
0.08633333333,0.395383954
0.08635416667,0.3903411627
0.086375,0.3855099678
0.08639583333,0.3811232448
0.08641666667,0.3774009645
0.0864375,0.374292016
0.08645833333,0.3719113171
0.08647916667,0.3698671162
0.0865,0.3679407835
0.08652083333,0.3656699955
0.08654166667,0.3630885184
0.0865625,0.3601514101
0.08658333333,0.3571827412
0.08660416667,0.3544213176
0.086625,0.3521964252
0.08664583333,0.350881964
0.08666666667,0.3504385352
0.0866875,0.350916177
0.08670833333,0.3518811464
0.08672916667,0.3529559076
0.08675,0.3539632261
0.08677083333,0.3545746803
0.08679166667,0.3548384011
0.0868125,0.3546817303
0.08683333333,0.3543900549
0.08685416667,0.3542944193
0.086875,0.3546867967
0.08689583333,0.3558084667
0.08691666667,0.3576522768
0.0869375,0.3600298762
0.08695833333,0.3625589907
0.08697916667,0.3646011949
0.087,0.3659154475
0.08702083333,0.3660080731
0.08704166667,0.3650593162
0.0870625,0.3635103703
0.08708333333,0.3616887331
0.08710416667,0.3602267504
0.087125,0.359526962
0.08714583333,0.35987854
0.08716666667,0.3613339365
0.0871875,0.3633419573
0.08720833333,0.3655288219
0.08722916667,0.36722368
0.08725,0.367931962
0.08727083333,0.3679755926
0.08729166667,0.367095232
0.0873125,0.3665781617
0.08733333333,0.3667959869
0.08735416667,0.3680677116
0.087375,0.3705252707
0.08739583333,0.3736182153
0.08741666667,0.3772187233
0.0874375,0.380694598
0.08745833333,0.3838917613
0.08747916667,0.3862709403
0.0875,0.3876610398
0.08752083333,0.3880258501
0.08754166667,0.3875525892
0.0875625,0.3866195679
0.08758333333,0.3856944144
0.08760416667,0.3851357996
0.087625,0.3851744533
0.08764583333,0.3857961595
0.08766666667,0.3867548406
0.0876875,0.3876574934
0.08770833333,0.388006568
0.08772916667,0.3873685896
0.08775,0.3854863346
0.08777083333,0.3824447393
0.08779166667,0.3786872625
0.0878125,0.3747505248
0.08783333333,0.3713185489
0.08785416667,0.3687210381
0.087875,0.3671341836
0.08789583333,0.3663747609
0.08791666667,0.3660392463
0.0879375,0.365754962
0.08795833333,0.3647884727
0.08797916667,0.3628802001
0.088,0.3598998785
0.08802083333,0.3560516536
0.08804166667,0.3517449498
0.0880625,0.3475244045
0.08808333333,0.3438723981
0.08810416667,0.3410353661
0.088125,0.3392181695
0.08814583333,0.3381643593
0.08816666667,0.3375869095
0.0881875,0.336812973
0.08820833333,0.3352847695
0.08822916667,0.3325356245
0.08825,0.3287575841
0.08827083333,0.3243991435
0.08829166667,0.3200118244
0.0883125,0.3161926568
0.08833333333,0.3134060204
0.08835416667,0.3117312193
0.088375,0.3109057546
0.08839583333,0.3105799556
0.08841666667,0.3100705743
0.0884375,0.3087523878
0.08845833333,0.3061372936
0.08847916667,0.3019067943
0.0885,0.2962284088
0.08852083333,0.2894999087
0.08854166667,0.2822402716
0.0885625,0.2748746276
0.08858333333,0.2675244212
0.08860416667,0.2605788708
0.088625,0.2539247274
0.08864583333,0.2475143969
0.08866666667,0.2408342063
0.0886875,0.2336496115
0.08870833333,0.2259412706
0.08872916667,0.2177163959
0.08875,0.2091206908
0.08877083333,0.2007076293
0.08879166667,0.1928942204
0.0888125,0.1864643395
0.08883333333,0.1816182137
0.08885416667,0.1784014106
0.088875,0.1764795184
0.08889583333,0.1751774102
0.08891666667,0.1740982533
0.0889375,0.1725372672
0.08895833333,0.170333758
0.08897916667,0.1676043272
0.089,0.1645720154
0.08902083333,0.161886692
0.08904166667,0.1598114669
0.0890625,0.1587195098
0.08908333333,0.1585873365
0.08910416667,0.1591766626
0.089125,0.1599129587
0.08914583333,0.1599707901
0.08916666667,0.1587312818
0.0891875,0.1558086872
0.08920833333,0.151154846
0.08922916667,0.1450887322
0.08925,0.1378965378
0.08927083333,0.1305871308
0.08929166667,0.1235099956
0.0893125,0.1172294617
0.08933333333,0.1116506159
0.08935416667,0.1061874554
0.089375,0.1010553092
0.08939583333,0.09589409828
0.08941666667,0.09034211934
0.0894375,0.08441741765
0.08945833333,0.07790379226
0.08947916667,0.0714957118
0.0895,0.0653187409
0.08952083333,0.05996570736
0.08954166667,0.05555102229
0.0895625,0.05225524679
0.08958333333,0.04997254163
0.08960416667,0.04849809408
0.089625,0.04740184546
0.08964583333,0.04633721337
0.08966666667,0.04502052441
0.0896875,0.04301533848
0.08970833333,0.04034212232
0.08972916667,0.03714577854
0.08975,0.03392207623
0.08977083333,0.03117681108
0.08979166667,0.02923199162
0.0898125,0.02823545225
0.08983333333,0.02789324895
0.08985416667,0.02786177024
0.089875,0.02742580697
0.08989583333,0.02602128312
0.08991666667,0.02321822569
0.0899375,0.01897361502
0.08995833333,0.0135864839
0.08997916667,0.007639117539
0.09,0.001962891547
0.09002083333,-0.003081640927
0.09004166667,-0.006955347024
0.0900625,-0.009786023758
0.09008333333,-0.01186750643
0.09010416667,-0.01391361095
0.090125,-0.01659317501
0.09014583333,-0.02022605203
0.09016666667,-0.02516224049
0.0901875,-0.03055416606
0.09020833333,-0.03654700518
0.09022916667,-0.04212214425
0.09025,-0.04625274241
0.09027083333,-0.0488858819
0.09029166667,-0.049113594
0.0903125,-0.04798857123
0.09033333333,-0.04615252838
0.09035416667,-0.04495549574
0.090375,-0.04518972337
0.09039583333,-0.04690880328
0.09041666667,-0.05030302331
0.0904375,-0.0553904362
0.09045833333,-0.06136172637
0.09047916667,-0.06782776862
0.0905,-0.0739344731
0.09052083333,-0.07928292453
0.09054166667,-0.08366981894
0.0905625,-0.08704381436
0.09058333333,-0.09004125744
0.09060416667,-0.09336134791
0.090625,-0.09767463058
0.09064583333,-0.1034616902
0.09066666667,-0.1108657271
0.0906875,-0.1196521148
0.09070833333,-0.1291143
0.09072916667,-0.1384416968
0.09075,-0.1466226429
0.09077083333,-0.1535219699
0.09079166667,-0.1587964147
0.0908125,-0.1631418765
0.09083333333,-0.1670059562
0.09085416667,-0.1713293493
0.090875,-0.1767506301
0.09089583333,-0.1834451556
0.09091666667,-0.1915889382
0.0909375,-0.2004222125
0.09095833333,-0.2094526589
0.09097916667,-0.2177209556
0.091,-0.224538967
0.09102083333,-0.2298400998
0.09104166667,-0.2327632606
0.0910625,-0.2342765629
0.09108333333,-0.2346578836
0.09110416667,-0.2355129868
0.091125,-0.2382182777
0.09114583333,-0.242279157
0.09116666667,-0.2476846129
0.0911875,-0.2535132468
0.09120833333,-0.2592318058
0.09122916667,-0.2645775676
0.09125,-0.268991828
0.09127083333,-0.2721208036
0.09129166667,-0.2745530605
0.0913125,-0.2767155766
0.09133333333,-0.279558897
0.09135416667,-0.2835642397
0.091375,-0.2889620662
0.09139583333,-0.2958045602
0.09141666667,-0.3034414351
0.0914375,-0.3112339079
0.09145833333,-0.3182538152
0.09147916667,-0.3238693178
0.0915,-0.3278975487
0.09152083333,-0.3304986656
0.09154166667,-0.3322442472
0.0915625,-0.3337697089
0.09158333333,-0.3359498084
0.09160416667,-0.3391444683
0.091625,-0.3436039388
0.09164583333,-0.3489376009
0.09166666667,-0.3544388413
0.0916875,-0.3595207632
0.09170833333,-0.3633666635
0.09172916667,-0.3655259311
0.09175,-0.3659961522
0.09177083333,-0.3651101291
0.09179166667,-0.363588959
0.0918125,-0.3622354269
0.09183333333,-0.3617093265
0.09185416667,-0.3624181449
0.091875,-0.3643249869
0.09189583333,-0.3670897186
0.09191666667,-0.37000525
0.0919375,-0.3723713756
0.09195833333,-0.373668462
0.09197916667,-0.3736672699
0.092,-0.3725849986
0.09202083333,-0.3711257279
0.09204166667,-0.3699704707
0.0920625,-0.369910568
0.09208333333,-0.3715583086
0.09210416667,-0.3748221695
0.092125,-0.3802619576
0.09214583333,-0.3867870271
0.09216666667,-0.3943279088
0.0921875,-0.402085036
0.09220833333,-0.4096367061
0.09222916667,-0.4170369804
0.09225,-0.4242407978
0.09227083333,-0.4317733347
0.09229166667,-0.4403961599
0.0923125,-0.4502579868
0.09233333333,-0.4611752629
0.09235416667,-0.4732472301
0.092375,-0.4856846631
0.09239583333,-0.4978670776
0.09241666667,-0.5089026093
0.0924375,-0.518252492
0.09245833333,-0.5259862542
0.09247916667,-0.5321945548
0.0925,-0.5377579927
0.09252083333,-0.5432989001
0.09254166667,-0.5496246815
0.0925625,-0.5570760369
0.09258333333,-0.5655987263
0.09260416667,-0.5748490095
0.092625,-0.5842686296
0.09264583333,-0.5932402015
0.09266666667,-0.6013242602
0.0926875,-0.608189106
0.09270833333,-0.61392349
0.09272916667,-0.618647933
0.09275,-0.6229273081
0.09277083333,-0.6271416545
0.09279166667,-0.6317282915
0.0928125,-0.6368970871
0.09283333333,-0.6424180269
0.09285416667,-0.6480858922
0.092875,-0.6533852816
0.09289583333,-0.6579696536
0.09291666667,-0.6615474224
0.0929375,-0.6640974879
0.09295833333,-0.6657942533
0.09297916667,-0.6669278145
0.093,-0.6679720283
0.09302083333,-0.6693426967
0.09304166667,-0.6713312864
0.0930625,-0.6739744544
0.09308333333,-0.6771273017
0.09310416667,-0.6803974509
0.093125,-0.6834645271
0.09314583333,-0.6859707832
0.09316666667,-0.6877270341
0.0931875,-0.6889046431
0.09320833333,-0.6895752549
0.09322916667,-0.690218091
0.09325,-0.691210568
0.09327083333,-0.6928522587
0.09329166667,-0.6953620911
0.0933125,-0.6984812617
0.09333333333,-0.7020635009
0.09335416667,-0.7054363489
0.093375,-0.7080789208
0.09339583333,-0.7097251415
0.09341666667,-0.7101660371
0.0934375,-0.7097058892
0.09345833333,-0.7086833119
0.09347916667,-0.7074154019
0.0935,-0.7061970234
0.09352083333,-0.7050998807
0.09354166667,-0.7042960525
0.0935625,-0.7034788728
0.09358333333,-0.7025855184
0.09360416667,-0.7012790442
0.093625,-0.6992838383
0.09364583333,-0.6966130733
0.09366666667,-0.6931518912
0.0936875,-0.6890624762
0.09370833333,-0.6848364472
0.09372916667,-0.6806615591
0.09375,-0.6769227386
0.09377083333,-0.6736381054
0.09379166667,-0.6706749201
0.0938125,-0.6678656936
0.09383333333,-0.6648965478
0.09385416667,-0.6614412665
0.093875,-0.6575118899
0.09389583333,-0.6528338194
0.09391666667,-0.6478427052
0.0939375,-0.6426333189
0.09395833333,-0.6375218034
0.09397916667,-0.6328812838
0.094,-0.6287022233
0.09402083333,-0.6250651479
0.09404166667,-0.6217249632
0.0940625,-0.6183626056
0.09408333333,-0.6149806976
0.09410416667,-0.6111329794
0.094125,-0.6069395542
0.09414583333,-0.6022837162
0.09416666667,-0.597396791
0.0941875,-0.5927944779
0.09420833333,-0.588570714
0.09422916667,-0.5850455165
0.09425,-0.5823234916
