time,data
0,-3.168839058e-08
2.083333333e-05,-3.037588669e-08
4.166666667e-05,-2.908494956e-08
6.25e-05,-2.782511643e-08
8.333333333e-05,-2.653098363e-08
0.0001041666667,-2.519114517e-08
0.000125,-2.375874075e-08
0.0001458333333,-2.225670137e-08
0.0001666666667,-2.070235361e-08
0.0001875,-1.909188008e-08
0.0002083333333,-1.743250522e-08
0.0002291666667,-1.564435514e-08
0.00025,-1.372481595e-08
0.0002708333333,-1.161670049e-08
0.0002916666667,-9.360425324e-09
0.0003125,-6.973558619e-09
0.0003333333333,-4.474816961e-09
0.0003541666667,-1.88067717e-09
0.000375,8.664407525e-10
0.0003958333333,3.758407807e-09
0.0004166666667,6.836101463e-09
0.0004375,1.005078065e-08
0.0004583333333,1.337232192e-08
0.0004791666667,1.677520167e-08
0.0005,2.022968815e-08
0.0005208333333,2.379917419e-08
0.0005416666667,2.746502759e-08
0.0005625,3.129450477e-08
0.0005833333333,3.522168512e-08
0.0006041666667,3.923862124e-08
0.000625,4.328466829e-08
0.0006458333333,4.733198722e-08
0.0006666666667,5.141697557e-08
0.0006875,5.55192905e-08
0.0007083333333,5.969922512e-08
0.0007291666667,6.388084728e-08
0.00075,6.803198715e-08
0.0007708333333,7.207265185e-08
0.0007916666667,7.593801854e-08
0.0008125,7.968080951e-08
0.0008333333333,8.326986745e-08
0.0008541666667,8.681450936e-08
0.000875,9.022872405e-08
0.0008958333333,9.350744534e-08
0.0009166666667,9.654093702e-08
0.0009375,9.928984923e-08
0.0009583333333,1.017965729e-07
0.0009791666667,1.040818631e-07
0.001,1.062470574e-07
0.001020833333,1.082249312e-07
0.001041666667,1.099660167e-07
0.0010625,1.113391335e-07
0.001083333333,1.122733906e-07
0.001104166667,1.128206932e-07
0.001125,1.129981797e-07
0.001145833333,1.129445053e-07
0.001166666667,1.12552641e-07
0.0011875,1.118135629e-07
0.001208333333,1.105426435e-07
0.001229166667,1.087441532e-07
0.00125,1.06465464e-07
0.001270833333,1.03806201e-07
0.001291666667,1.009119188e-07
0.0013125,9.770898401e-08
0.001333333333,9.416973512e-08
0.001354166667,9.01307331e-08
0.001375,8.557113773e-08
0.001395833333,8.057937606e-08
0.001416666667,7.521177992e-08
0.0014375,6.964414467e-08
0.001458333333,6.373896611e-08
0.001479166667,5.749972232e-08
0.0015,5.071317233e-08
0.001520833333,4.342224358e-08
0.001541666667,3.567648932e-08
0.0015625,2.761824724e-08
0.001583333333,1.938989769e-08
0.001604166667,1.09489644e-08
0.001625,2.290582168e-09
0.001645833333,-6.720661361e-09
0.001666666667,-1.604881383e-08
0.0016875,-2.560388168e-08
0.001708333333,-3.527707548e-08
0.001729166667,-4.48795916e-08
0.00175,-5.451294527e-08
0.001770833333,-6.411637798e-08
0.001791666667,-7.392704759e-08
0.0018125,-8.386461303e-08
0.001833333333,-9.395075296e-08
0.001854166667,-1.040200672e-07
0.001875,-1.139350445e-07
0.001895833333,-1.236966227e-07
0.001916666667,-1.332790589e-07
0.0019375,-1.428291228e-07
0.001958333333,-1.523337687e-07
0.001979166667,-1.6172568e-07
0.002,-1.708676649e-07
0.002020833333,-1.79508632e-07
0.002041666667,-1.876607598e-07
0.0020625,-1.952421798e-07
0.002083333333,-2.025033297e-07
0.002104166667,-2.094148357e-07
0.002125,-2.160580408e-07
0.002145833333,-2.221967179e-07
0.002166666667,-2.277087532e-07
0.0021875,-2.324881052e-07
0.002208333333,-2.366065246e-07
0.002229166667,-2.402730104e-07
0.00225,-2.435683086e-07
0.002270833333,-2.465066018e-07
0.002291666667,-2.488479822e-07
0.0023125,-2.503418273e-07
0.002333333333,-2.509129047e-07
0.002354166667,-2.505311443e-07
0.002375,-2.495455647e-07
0.002395833333,-2.479262946e-07
0.002416666667,-2.458214681e-07
0.0024375,-2.428527353e-07
0.002458333333,-2.389061819e-07
0.002479166667,-2.338409644e-07
0.0025,-2.278290339e-07
0.002520833333,-2.211893104e-07
0.002541666667,-2.140751008e-07
0.0025625,-2.065390845e-07
0.002583333333,-1.983255089e-07
0.002604166667,-1.892118178e-07
0.002625,-1.79163095e-07
0.002645833333,-1.682524697e-07
0.002666666667,-1.5687813e-07
0.0026875,-1.450415112e-07
0.002708333333,-1.328878341e-07
0.002729166667,-1.199831274e-07
0.00275,-1.062818171e-07
0.002770833333,-9.158622305e-08
0.002791666667,-7.618141495e-08
0.0028125,-6.032840361e-08
0.002833333333,-4.423445077e-08
0.002854166667,-2.797797016e-08
0.002875,-1.133880012e-08
0.002895833333,5.774092315e-09
0.002916666667,2.339050731e-08
0.0029375,4.135094755e-08
0.002958333333,5.926576563e-08
0.002979166667,7.709296312e-08
0.003,9.459170514e-08
0.003020833333,1.12169424e-07
0.003041666667,1.297736532e-07
0.0030625,1.477012148e-07
0.003083333333,1.6566878e-07
0.003104166667,1.835302186e-07
0.003125,2.010166895e-07
0.003145833333,2.180257184e-07
0.003166666667,2.347052401e-07
0.0031875,2.51144769e-07
0.003208333333,2.674651682e-07
0.003229166667,2.835088537e-07
0.00325,2.989279722e-07
0.003270833333,3.135107249e-07
0.003291666667,3.269199169e-07
0.0033125,3.394935391e-07
0.003333333333,3.511684668e-07
0.003354166667,3.624365377e-07
0.003375,3.729599598e-07
0.003395833333,3.827112209e-07
0.003416666667,3.912270472e-07
0.0034375,3.984303589e-07
0.003458333333,4.045154185e-07
0.003479166667,4.096987141e-07
0.0035,4.143485057e-07
0.003520833333,4.182956843e-07
0.003541666667,4.212180897e-07
0.0035625,4.227567842e-07
0.003583333333,4.225267958e-07
0.003604166667,4.209574342e-07
0.003625,4.180485291e-07
0.003645833333,4.144505397e-07
0.003666666667,4.097310011e-07
0.0036875,4.038375891e-07
0.003708333333,3.961534674e-07
0.003729166667,3.866946656e-07
0.00375,3.757314175e-07
0.003770833333,3.637005648e-07
0.003791666667,3.510766362e-07
0.0038125,3.377116968e-07
0.003833333333,3.233415953e-07
0.003854166667,3.075681434e-07
0.003875,2.901991252e-07
0.003895833333,2.717379459e-07
0.003916666667,2.52299003e-07
0.0039375,2.325916881e-07
0.003958333333,2.120537204e-07
0.003979166667,1.907415879e-07
0.004,1.679081407e-07
0.004020833333,1.437511088e-07
0.004041666667,1.184811893e-07
0.0040625,9.258871358e-08
0.004083333333,6.654119034e-08
0.004104166667,4.020333577e-08
0.004125,1.34699798e-08
0.004145833333,-1.397832872e-08
0.004166666667,-4.216331462e-08
0.0041875,-7.058832807e-08
0.004208333333,-9.907904541e-08
0.004229166667,-1.269023358e-07
0.00425,-1.545294026e-07
0.004270833333,-1.817215605e-07
0.004291666667,-2.092792357e-07
0.0043125,-2.368962129e-07
0.004333333333,-2.646719963e-07
0.004354166667,-2.920448594e-07
0.004375,-3.186725621e-07
0.004395833333,-3.445599077e-07
0.004416666667,-3.696749218e-07
0.0044375,-3.944812477e-07
0.004458333333,-4.189228946e-07
0.004479166667,-4.427753311e-07
0.0045,-4.657238151e-07
0.004520833333,-4.868974202e-07
0.004541666667,-5.066326025e-07
0.0045625,-5.244264116e-07
0.004583333333,-5.413419899e-07
0.004604166667,-5.570391863e-07
0.004625,-5.719072647e-07
0.004645833333,-5.852615459e-07
0.004666666667,-5.966955996e-07
0.0046875,-6.061413842e-07
0.004708333333,-6.136389743e-07
0.004729166667,-6.199613836e-07
0.00475,-6.252681715e-07
0.004770833333,-6.295372827e-07
0.004791666667,-6.323102184e-07
0.0048125,-6.326357038e-07
0.004833333333,-6.307220701e-07
0.004854166667,-6.261520866e-07
0.004875,-6.202466807e-07
0.004895833333,-6.126525705e-07
0.004916666667,-6.03946944e-07
0.0049375,-5.930702969e-07
0.004958333333,-5.79703908e-07
0.004979166667,-5.636753713e-07
0.005,-5.452674259e-07
0.005020833333,-5.255720907e-07
0.005041666667,-5.048039498e-07
0.0050625,-4.831826459e-07
0.005083333333,-4.601125738e-07
0.005104166667,-4.348202651e-07
0.005125,-4.076336495e-07
0.005145833333,-3.782935494e-07
0.005166666667,-3.483392561e-07
0.0051875,-3.173121002e-07
0.005208333333,-2.859007395e-07
0.005229166667,-2.528570064e-07
0.00525,-2.180648835e-07
0.005270833333,-1.812482679e-07
0.005291666667,-1.428594487e-07
0.0053125,-1.038736599e-07
0.005333333333,-6.451563195e-08
0.005354166667,-2.514852859e-08
0.005375,1.480463219e-08
0.005395833333,5.567563122e-08
0.005416666667,9.722221961e-08
0.0054375,1.394819833e-07
0.005458333333,1.809784891e-07
0.005479166667,2.22209394e-07
0.0055,2.620712962e-07
0.005520833333,3.019706583e-07
0.005541666667,3.415423748e-07
0.0055625,3.814878653e-07
0.005583333333,4.213698332e-07
0.005604166667,4.604392245e-07
0.005625,4.985979558e-07
0.005645833333,5.351278105e-07
0.005666666667,5.70727309e-07
0.0056875,6.05505079e-07
0.005708333333,6.395420655e-07
0.005729166667,6.729891311e-07
0.00575,7.043270216e-07
0.005770833333,7.339422154e-07
0.005791666667,7.602513961e-07
0.0058125,7.846988979e-07
0.005833333333,8.067787007e-07
0.005854166667,8.276736594e-07
0.005875,8.469370982e-07
0.005895833333,8.639863722e-07
0.005916666667,8.784870147e-07
0.0059375,8.89605019e-07
0.005958333333,8.983138855e-07
0.005979166667,9.048758329e-07
0.006,9.100412512e-07
0.006020833333,9.139226336e-07
0.006041666667,9.150693359e-07
0.0060625,9.136519452e-07
0.006083333333,9.078360677e-07
0.006104166667,8.994614404e-07
0.006125,8.879417237e-07
0.006145833333,8.749902918e-07
0.006166666667,8.59852662e-07
0.0061875,8.41923395e-07
0.006208333333,8.206496886e-07
0.006229166667,7.95215783e-07
0.00625,7.669939919e-07
0.006270833333,7.36467598e-07
0.006291666667,7.048039379e-07
0.0063125,6.72053261e-07
0.006333333333,6.369431276e-07
0.006354166667,5.996378718e-07
0.006375,5.585991971e-07
0.006395833333,5.15977149e-07
0.006416666667,4.712000248e-07
0.0064375,4.262930133e-07
0.006458333333,3.800279273e-07
0.006479166667,3.321960094e-07
0.0065,2.819138558e-07
0.006520833333,2.286824383e-07
0.006541666667,1.739118289e-07
0.0065625,1.178192903e-07
0.006583333333,6.194150615e-08
0.006604166667,5.950556492e-09
0.006625,-5.078770826e-08
0.006645833333,-1.080258514e-07
0.006666666667,-1.671071459e-07
0.0066875,-2.25578475e-07
0.006708333333,-2.844157905e-07
0.006729166667,-3.410791862e-07
0.00675,-3.969842339e-07
0.006770833333,-4.517867183e-07
0.006791666667,-5.064126753e-07
0.0068125,-5.614463703e-07
0.006833333333,-6.157543453e-07
0.006854166667,-6.694627359e-07
0.006875,-7.209389992e-07
0.006895833333,-7.705144753e-07
0.006916666667,-8.184322269e-07
0.0069375,-8.647231198e-07
0.006958333333,-9.107500318e-07
0.006979166667,-9.544194199e-07
0.007,-9.967462802e-07
0.007020833333,-1.034624688e-06
0.007041666667,-1.069498467e-06
0.0070625,-1.100257464e-06
0.007083333333,-1.128505119e-06
0.007104166667,-1.154788606e-06
0.007125,-1.178415005e-06
0.007145833333,-1.199622943e-06
0.007166666667,-1.21623475e-06
0.0071875,-1.228920951e-06
0.007208333333,-1.237681772e-06
0.007229166667,-1.243417387e-06
0.00725,-1.247916543e-06
0.007270833333,-1.249301135e-06
0.007291666667,-1.24871417e-06
0.0073125,-1.242426151e-06
0.007333333333,-1.232115551e-06
0.007354166667,-1.216495207e-06
0.007375,-1.197837264e-06
0.007395833333,-1.176713454e-06
0.007416666667,-1.152560571e-06
0.0074375,-1.125265953e-06
0.007458333333,-1.092421144e-06
0.007479166667,-1.054909831e-06
0.0075,-1.012873895e-06
0.007520833333,-9.680480844e-07
0.007541666667,-9.222110293e-07
0.0075625,-8.739197028e-07
0.007583333333,-8.242295166e-07
0.007604166667,-7.694869737e-07
0.007625,-7.120006558e-07
0.007645833333,-6.503382792e-07
0.007666666667,-5.875830311e-07
0.0076875,-5.237664027e-07
0.007708333333,-4.586393629e-07
0.007729166667,-3.918725895e-07
0.00775,-3.210634532e-07
0.007770833333,-2.474895098e-07
0.007791666667,-1.709116333e-07
0.0078125,-9.342497265e-08
0.007833333333,-1.636099078e-08
0.007854166667,6.133760166e-08
0.007875,1.383744745e-07
0.007895833333,2.180558596e-07
0.007916666667,2.975602627e-07
0.0079375,3.786453817e-07
0.007958333333,4.577998993e-07
0.007979166667,5.354459631e-07
0.008,6.110496997e-07
0.008020833333,6.849503507e-07
0.008041666667,7.591886515e-07
0.0080625,8.326174452e-07
0.008083333333,9.06224443e-07
0.008104166667,9.778066214e-07
0.008125,1.046685611e-06
0.008145833333,1.113164785e-06
0.008166666667,1.176043952e-06
0.0081875,1.238590926e-06
0.008208333333,1.298058237e-06
0.008229166667,1.357059318e-06
0.00825,1.411448807e-06
0.008270833333,1.461955094e-06
0.008291666667,1.50694359e-06
0.0083125,1.546793783e-06
0.008333333333,1.583631843e-06
0.008354166667,1.616602276e-06
0.008375,1.647437443e-06
0.008395833333,1.673529709e-06
0.008416666667,1.694407615e-06
0.0084375,1.709867547e-06
0.008458333333,1.719220108e-06
0.008479166667,1.726325763e-06
0.0085,1.72909688e-06
0.008520833333,1.730743293e-06
0.008541666667,1.726650794e-06
0.0085625,1.717684199e-06
0.008583333333,1.701512247e-06
0.008604166667,1.679272259e-06
0.008625,1.653112122e-06
0.008645833333,1.622736022e-06
0.008666666667,1.589843805e-06
0.0086875,1.551203582e-06
0.008708333333,1.506624699e-06
0.008729166667,1.455389338e-06
0.00875,1.397925644e-06
0.008770833333,1.338295078e-06
0.008791666667,1.274955366e-06
0.0088125,1.211505264e-06
0.008833333333,1.142888323e-06
0.008854166667,1.070904887e-06
0.008875,9.929201497e-07
0.008895833333,9.111648751e-07
0.008916666667,8.27645124e-07
0.0089375,7.421974146e-07
0.008958333333,6.564982868e-07
0.008979166667,5.669430152e-07
0.009,4.73894147e-07
0.009020833333,3.763188658e-07
0.009041666667,2.751299348e-07
0.0090625,1.739261535e-07
0.009083333333,7.125987622e-08
0.009104166667,-2.914967467e-08
0.009125,-1.321185863e-07
0.009145833333,-2.349160013e-07
0.009166666667,-3.403730489e-07
0.0091875,-4.45531839e-07
0.009208333333,-5.491093589e-07
0.009229166667,-6.506700743e-07
0.00925,-7.484825346e-07
0.009270833333,-8.457073477e-07
0.009291666667,-9.414389979e-07
0.0093125,-1.037536435e-06
0.009333333333,-1.132927082e-06
0.009354166667,-1.225211349e-06
0.009375,-1.31541924e-06
0.009395833333,-1.399774078e-06
0.009416666667,-1.482959533e-06
0.0094375,-1.56179749e-06
0.009458333333,-1.640274832e-06
0.009479166667,-1.715043595e-06
0.0095,-1.785614245e-06
0.009520833333,-1.85051897e-06
0.009541666667,-1.907614205e-06
0.0095625,-1.959753945e-06
0.009583333333,-2.005931492e-06
0.009604166667,-2.049139994e-06
0.009625,-2.088183464e-06
0.009645833333,-2.121316356e-06
0.009666666667,-2.148770591e-06
0.0096875,-2.166890681e-06
0.009708333333,-2.180679076e-06
0.009729166667,-2.187587143e-06
0.00975,-2.193063892e-06
0.009770833333,-2.193512501e-06
0.009791666667,-2.189128736e-06
0.0098125,-2.177253236e-06
0.009833333333,-2.156092705e-06
0.009854166667,-2.128566848e-06
0.009875,-2.09409086e-06
0.009895833333,-2.056577159e-06
0.009916666667,-2.014042593e-06
0.0099375,-1.965128604e-06
0.009958333333,-1.909084858e-06
0.009979166667,-1.84280816e-06
0.01,-1.75106868e-06
0.01002083333,-1.534157263e-06
0.01004166667,-1.457956273e-06
0.0100625,-1.491776516e-06
0.01008333333,-1.516379029e-06
0.01010416667,-1.433817374e-06
0.010125,-1.30380613e-06
0.01014583333,-1.09756013e-06
0.01016666667,-9.975351531e-07
0.0101875,-9.642814121e-07
0.01020833333,-9.383518318e-07
0.01022916667,-8.196526551e-07
0.01025,-6.707535931e-07
0.01027083333,-4.708526546e-07
0.01029166667,-3.133461348e-07
0.0103125,-1.929781632e-07
0.01033333333,-1.021966654e-07
0.01035416667,3.102844559e-08
0.010375,1.727531327e-07
0.01039583333,3.785697231e-07
0.01041666667,4.831143201e-07
0.0104375,5.073992497e-07
0.01045833333,5.164911272e-07
0.01047916667,6.394838579e-07
0.0105,8.443702768e-07
0.01052083333,1.127987844e-06
0.01054166667,1.30321655e-06
0.0105625,1.388712576e-06
0.01058333333,1.414078952e-06
0.01060416667,1.459371219e-06
0.010625,1.538310471e-06
0.01064583333,1.750084834e-06
0.01066666667,1.929126711e-06
0.0106875,2.057808842e-06
0.01070833333,2.025420372e-06
0.01072916667,2.027784376e-06
0.01075,2.067067499e-06
0.01077083333,2.233803343e-06
0.01079166667,2.340890433e-06
0.0108125,2.407030706e-06
0.01083333333,2.437308694e-06
0.01085416667,2.476886493e-06
0.010875,2.522218438e-06
0.01089583333,2.642774916e-06
0.01091666667,2.656246807e-06
0.0109375,2.666875616e-06
0.01095833333,2.575416147e-06
0.01097916667,2.571591949e-06
0.011,2.555601213e-06
0.01102083333,2.624527269e-06
0.01104166667,2.724935257e-06
0.0110625,2.739246611e-06
0.01108333333,2.656196102e-06
0.01110416667,2.608068826e-06
0.011125,2.542912398e-06
0.01114583333,2.531966175e-06
0.01116666667,2.493213742e-06
0.0111875,2.541715276e-06
0.01120833333,2.45638671e-06
0.01122916667,2.4105168e-06
0.01125,2.350496743e-06
0.01127083333,2.267465334e-06
0.01129166667,2.099221547e-06
0.0113125,2.017729685e-06
0.01133333333,1.895837272e-06
0.01135416667,1.864927526e-06
0.011375,1.799035999e-06
0.01139583333,1.77319896e-06
0.01141666667,1.624230435e-06
0.0114375,1.423341928e-06
0.01145833333,1.127504902e-06
0.01147916667,1.04802325e-06
0.0115,9.562495507e-07
0.01152083333,9.233733635e-07
0.01154166667,7.934370956e-07
0.0115625,5.725479468e-07
0.01158333333,3.178605823e-07
0.01160416667,1.794128508e-07
0.011625,6.791192675e-08
0.01164583333,4.029810441e-08
0.01166666667,-1.312307774e-07
0.0116875,-3.303266851e-07
0.01170833333,-7.015905226e-07
0.01172916667,-8.228017805e-07
0.01175,-8.562948324e-07
0.01177083333,-8.095881867e-07
0.01179166667,-9.152646498e-07
0.0118125,-1.151979177e-06
0.01183333333,-1.540779976e-06
0.01185416667,-1.706627131e-06
0.011875,-1.731286829e-06
0.01189583333,-1.682114544e-06
0.01191666667,-1.683319397e-06
0.0119375,-1.818414603e-06
0.01195833333,-2.145606004e-06
0.01197916667,-2.28490353e-06
0.012,-2.506036253e-06
0.01202083333,-2.386322421e-06
0.01204166667,-2.44700982e-06
0.0120625,-2.509678779e-06
0.01208333333,-2.747404551e-06
0.01210416667,-2.852552598e-06
0.012125,-2.855747425e-06
0.01214583333,-2.755160949e-06
0.01216666667,-2.806750445e-06
0.0121875,-2.85700412e-06
0.01220833333,-3.050513669e-06
0.01222916667,-3.074243295e-06
0.01225,-3.077623205e-06
0.01227083333,-2.957395736e-06
0.01229166667,-2.786954838e-06
0.0123125,-2.797342631e-06
0.01233333333,-3.096551154e-06
0.01235416667,-3.12634188e-06
0.012375,-3.073856078e-06
0.01239583333,-2.866810291e-06
0.01241666667,-2.664576868e-06
0.0124375,-2.443870471e-06
0.01245833333,-2.429546157e-06
0.01247916667,-2.453755314e-06
0.0125,-2.45686465e-06
0.01252083333,-2.384635991e-06
0.01254166667,-2.241252105e-06
0.0125625,-2.08021379e-06
0.01258333333,-2.089881946e-06
0.01260416667,-1.959472229e-06
0.012625,-1.911849949e-06
0.01264583333,-1.746216071e-06
0.01266666667,-1.713794063e-06
0.0126875,-1.468881351e-06
0.01270833333,-1.353924176e-06
0.01272916667,-1.063738182e-06
0.01275,-8.769950455e-07
0.01277083333,-4.267080556e-07
0.01279166667,-3.017097754e-07
0.0128125,-1.265150047e-07
0.01283333333,-9.484335806e-08
0.01285416667,4.018659183e-08
0.012875,2.18911012e-07
0.01289583333,5.722154128e-07
0.01291666667,7.234709756e-07
0.0129375,1.000965995e-06
0.01295833333,1.112974928e-06
0.01297916667,1.310693278e-06
0.013,1.339890787e-06
0.01302083333,1.688874249e-06
0.01304166667,1.8758534e-06
0.0130625,2.185545782e-06
0.01308333333,2.190719442e-06
0.01310416667,2.261679811e-06
0.013125,2.413090442e-06
0.01314583333,2.585880111e-06
0.01316666667,2.616169695e-06
0.0131875,2.697433729e-06
0.01320833333,2.761115638e-06
0.01322916667,3.064150405e-06
0.01325,3.326236765e-06
0.01327083333,3.493983741e-06
0.01329166667,3.465324653e-06
0.0133125,3.663648613e-06
0.01333333333,3.89046636e-06
0.01335416667,3.950301107e-06
0.013375,3.920160452e-06
0.01339583333,4.229159003e-06
0.01341666667,4.261984486e-06
0.0134375,4.302572052e-06
0.01345833333,4.048674327e-06
0.01347916667,4.064434506e-06
0.0135,4.040571184e-06
0.01352083333,4.239753252e-06
0.01354166667,4.364436791e-06
0.0135625,4.438840733e-06
0.01358333333,4.233281743e-06
0.01360416667,4.199293471e-06
0.013625,4.099546459e-06
0.01364583333,4.006504696e-06
0.01366666667,3.851966085e-06
0.0136875,3.797522822e-06
0.01370833333,3.502974323e-06
0.01372916667,3.653014574e-06
0.01375,3.623405291e-06
0.01377083333,3.30586704e-06
0.01379166667,2.888570862e-06
0.0138125,2.684664196e-06
0.01383333333,2.505249995e-06
0.01385416667,2.45332285e-06
0.013875,2.322577757e-06
0.01389583333,2.378075578e-06
0.01391666667,2.321013199e-06
0.0139375,1.995290859e-06
0.01395833333,1.49188179e-06
0.01397916667,1.247652676e-06
0.014,9.700995633e-07
0.01402083333,1.253514142e-06
0.01404166667,1.17580953e-06
0.0140625,1.197653546e-06
0.01408333333,7.164525186e-07
0.01410416667,6.124585639e-07
0.014125,2.943650372e-07
0.01414583333,1.043492688e-07
0.01416666667,-1.274109138e-07
0.0141875,-5.512817438e-07
0.01420833333,-8.986028774e-07
0.01422916667,-9.950513231e-07
0.01425,-1.083933739e-06
0.01427083333,-1.080790071e-06
0.01429166667,-1.469548238e-06
0.0143125,-1.954429763e-06
0.01433333333,-2.668759407e-06
0.01435416667,-2.76531091e-06
0.014375,-2.419371413e-06
0.01439583333,-2.251721526e-06
0.01441666667,-2.591680413e-06
0.0144375,-2.700547611e-06
0.01445833333,-3.191469659e-06
0.01447916667,-3.540979606e-06
0.0145,-3.853295311e-06
0.01452083333,-3.664220912e-06
0.01454166667,-3.715489356e-06
0.0145625,-3.538578312e-06
0.01458333333,-3.52779125e-06
0.01460416667,-3.572035894e-06
0.014625,-3.887693765e-06
0.01464583333,-3.770654303e-06
0.01466666667,-3.97933718e-06
0.0146875,-3.95844836e-06
0.01470833333,-3.809083637e-06
0.01472916667,-3.697731472e-06
0.01475,-3.700502248e-06
0.01477083333,-3.30623584e-06
0.01479166667,-3.052740567e-06
0.0148125,-3.415626679e-06
0.01483333333,-3.798976422e-06
0.01485416667,-3.737907491e-06
0.014875,-3.400195965e-06
0.01489583333,-3.414263574e-06
0.01491666667,-3.272773256e-06
0.0149375,-2.960941174e-06
0.01495833333,-3.12645966e-06
0.01497916667,-3.006497764e-06
0.015,-3.31982119e-06
0.01502083333,-3.067535772e-06
0.01504166667,-2.864343514e-06
0.0150625,-2.578466365e-06
0.01508333333,-2.164130365e-06
0.01510416667,-1.527298309e-06
0.015125,-1.286314273e-06
0.01514583333,-1.483133815e-06
0.01516666667,-1.964097919e-06
0.0151875,-2.364464763e-06
0.01520833333,-2.143907295e-06
0.01522916667,-1.465369792e-06
0.01525,-1.342112e-06
0.01527083333,-7.630096093e-07
0.01529166667,-7.052142337e-07
0.0153125,-8.962394986e-07
0.01533333333,-1.012088433e-06
0.01535416667,-4.29935227e-07
0.015375,-8.735986512e-07
0.01539583333,-3.286855303e-07
0.01541666667,-2.327608399e-07
0.0154375,-4.036181167e-07
0.01545833333,-3.411956868e-07
0.01547916667,-1.407796617e-07
0.0155,2.135855084e-07
0.01552083333,3.693062354e-07
0.01554166667,8.627145007e-07
0.0155625,7.072842436e-07
0.01558333333,7.788821677e-07
0.01560416667,1.857313464e-06
0.015625,2.201128382e-06
0.01564583333,3.079060662e-06
0.01566666667,2.61019477e-06
0.0156875,1.915097528e-06
0.01570833333,1.740506491e-06
0.01572916667,1.981250534e-06
0.01575,2.77551726e-06
0.01577083333,3.419095947e-06
0.01579166667,3.410952104e-06
0.0158125,3.139827641e-06
0.01583333333,2.965692374e-06
0.01585416667,2.686417474e-06
0.015875,2.819610472e-06
0.01589583333,3.375572305e-06
0.01591666667,3.326753813e-06
0.0159375,3.351492524e-06
0.01595833333,2.557424523e-06
0.01597916667,2.655995331e-06
0.016,2.280769877e-06
0.01602083333,2.220997203e-06
0.01604166667,2.123512104e-06
0.0160625,2.520459248e-06
0.01608333333,2.650284387e-06
0.01610416667,2.482508307e-06
0.016125,2.39517567e-06
0.01614583333,2.239187779e-06
0.01616666667,2.248638339e-06
0.0161875,1.745905593e-06
0.01620833333,1.295710717e-06
0.01622916667,1.285007329e-06
0.01625,1.545660439e-06
0.01627083333,2.263824172e-06
0.01629166667,2.095200443e-06
0.0163125,1.888718089e-06
0.01633333333,1.334102649e-06
0.01635416667,1.199240955e-06
0.016375,1.376513183e-06
0.01639583333,1.583210974e-06
0.01641666667,1.610176696e-06
0.0164375,1.830447445e-06
0.01645833333,1.93280539e-06
0.01647916667,7.008931675e-07
0.0165,-1.712305675e-08
0.01652083333,1.048222771e-07
0.01654166667,9.73765566e-08
0.0165625,3.488169114e-07
0.01658333333,-7.84590668e-08
0.01660416667,4.384544923e-07
0.016625,-3.065531473e-08
0.01664583333,2.299817083e-07
0.01666666667,-4.350855534e-07
0.0166875,-1.237754759e-06
0.01670833333,-1.846398959e-06
0.01672916667,-2.535633939e-06
0.01675,-2.156407618e-06
0.01677083333,-1.008408162e-06
0.01679166667,-1.577483204e-06
0.0168125,-1.987541509e-06
0.01683333333,-2.342810831e-06
0.01685416667,-3.10197197e-06
0.016875,-3.154349997e-06
0.01689583333,-2.122170145e-06
0.01691666667,-2.142131507e-06
0.0169375,-1.578492288e-06
0.01695833333,-2.37791528e-06
0.01697916667,-3.26969348e-06
0.017,-4.612640168e-06
0.01702083333,-4.952697964e-06
0.01704166667,-4.680080565e-06
0.0170625,-4.606970833e-06
0.01708333333,-4.278423148e-06
0.01710416667,-4.112599981e-06
0.017125,-3.866705811e-06
0.01714583333,-3.240899332e-06
0.01716666667,-3.455565775e-06
0.0171875,-3.691117172e-06
0.01720833333,-4.496096153e-06
0.01722916667,-4.377372079e-06
0.01725,-4.676268873e-06
0.01727083333,-4.091090432e-06
0.01729166667,-3.589682137e-06
0.0173125,-4.254115993e-06
0.01733333333,-5.174169019e-06
0.01735416667,-5.241155122e-06
0.017375,-4.808316135e-06
0.01739583333,-4.494003406e-06
0.01741666667,-2.969969501e-06
0.0174375,-1.685060397e-06
0.01745833333,-1.647759291e-06
0.01747916667,-1.887339181e-06
0.0175,-2.129985432e-06
0.01752083333,-4.064766927e-06
0.01754166667,-4.508730399e-06
0.0175625,-3.672289267e-06
0.01758333333,-3.586173534e-06
0.01760416667,-3.482861757e-06
0.017625,-2.42318356e-06
0.01764583333,-3.14468798e-06
0.01766666667,-3.343046046e-06
0.0176875,-3.050236046e-06
0.01770833333,-2.44015223e-06
0.01772916667,-1.805693614e-06
0.01775,-1.214303438e-06
0.01777083333,-8.024330782e-07
0.01779166667,-1.777165267e-06
0.0178125,-1.970875246e-06
0.01783333333,-1.988013082e-06
0.01785416667,-9.316248111e-07
0.017875,-1.494454409e-06
0.01789583333,-9.297619386e-07
0.01791666667,-1.338745847e-06
0.0179375,-5.155684448e-07
0.01795833333,3.707461929e-07
0.01797916667,1.912380867e-06
0.018,3.040407819e-06
0.01802083333,2.628126595e-06
0.01804166667,1.611970333e-06
0.0180625,1.914936092e-06
0.01808333333,2.501526751e-06
0.01810416667,3.030682137e-06
0.018125,2.874497568e-06
0.01814583333,3.366190185e-06
0.01816666667,3.600152922e-06
0.0181875,3.342373475e-06
0.01820833333,3.206275323e-06
0.01822916667,4.042906767e-06
0.01825,5.580449397e-06
0.01827083333,4.913608791e-06
0.01829166667,5.16848786e-06
0.0183125,4.889460342e-06
0.01833333333,4.784977136e-06
0.01835416667,5.365552624e-06
0.018375,5.712010079e-06
0.01839583333,6.20967694e-06
0.01841666667,6.029965334e-06
0.0184375,5.25903215e-06
0.01845833333,4.059076673e-06
0.01847916667,4.791118499e-06
0.0185,6.630782536e-06
0.01852083333,7.466836905e-06
0.01854166667,7.0535948e-06
0.0185625,6.568983736e-06
0.01858333333,5.945101748e-06
0.01860416667,5.336844424e-06
0.018625,6.425272659e-06
0.01864583333,7.676142559e-06
0.01866666667,7.14350881e-06
0.0186875,7.15667511e-06
0.01870833333,5.136323125e-06
0.01872916667,6.139078323e-06
0.01875,6.673632925e-06
0.01877083333,6.652976936e-06
0.01879166667,6.032444617e-06
0.0188125,5.529620466e-06
0.01883333333,4.526749763e-06
0.01885416667,4.217830792e-06
0.018875,4.60134288e-06
0.01889583333,4.703608283e-06
0.01891666667,4.991383321e-06
0.0189375,3.450292752e-06
0.01895833333,1.561301133e-06
0.01897916667,1.02566878e-06
0.019,2.080730383e-06
0.01902083333,3.366657438e-06
0.01904166667,3.389328867e-06
0.0190625,2.348204134e-06
0.01908333333,1.019459546e-06
0.01910416667,-2.750756494e-07
0.019125,1.947155965e-07
0.01914583333,1.48974766e-06
0.01916666667,2.125841092e-06
0.0191875,9.744935596e-07
0.01920833333,-6.483280117e-07
0.01922916667,-3.868657359e-07
0.01925,-6.281816241e-07
0.01927083333,-1.338351012e-07
0.01929166667,-6.177430123e-07
0.0193125,-2.022389708e-06
0.01933333333,-2.796119816e-06
0.01935416667,-2.32379989e-06
0.019375,-2.185873427e-06
0.01939583333,-7.88029638e-07
0.01941666667,-9.669404335e-07
0.0194375,-3.521146255e-06
0.01945833333,-5.647118996e-06
0.01947916667,-6.660392046e-06
0.0195,-4.833920684e-06
0.01952083333,-2.715821211e-06
0.01954166667,-2.2864931e-06
0.0195625,-2.927729838e-06
0.01958333333,-4.515280125e-06
0.01960416667,-5.342074473e-06
0.019625,-5.151285222e-06
0.01964583333,-3.178580982e-06
0.01966666667,-1.409566721e-06
0.0196875,-2.2041188e-06
0.01970833333,-3.499588274e-06
0.01972916667,-3.912204193e-06
0.01975,-4.605315553e-06
0.01977083333,-3.279496923e-06
0.01979166667,-2.949723921e-06
0.0198125,-2.154466983e-06
0.01983333333,-2.706093028e-06
0.01985416667,-2.858964308e-06
0.019875,-1.263010745e-06
0.01989583333,-7.433598057e-07
0.01991666667,5.36909738e-07
0.0199375,1.139518645e-06
0.01995833333,5.068491191e-07
0.01997916667,-1.526441338e-06
0.02,-9.990070794e-06
0.02002083333,-9.155958651e-06
0.02004166667,-8.110147064e-06
0.0200625,-7.937951523e-06
0.02008333333,-8.491241715e-06
0.02010416667,-1.023050299e-05
0.020125,-9.579825019e-06
0.02014583333,-7.634963367e-06
0.02016666667,-6.402074177e-06
0.0201875,-5.5211176e-06
0.02020833333,-5.361352578e-06
0.02022916667,-6.633407793e-06
0.02025,-6.874189694e-06
0.02027083333,-6.806422334e-06
0.02029166667,-7.136799468e-06
0.0203125,-7.655447916e-06
0.02033333333,-8.13227598e-06
0.02035416667,-8.38824144e-06
0.020375,-8.604565664e-06
0.02039583333,-8.903038179e-06
0.02041666667,-9.614347618e-06
0.0204375,-9.439366295e-06
0.02045833333,-8.009741578e-06
0.02047916667,-8.441527825e-06
0.0205,-8.341571629e-06
0.02052083333,-8.897607586e-06
0.02054166667,-8.466263353e-06
0.0205625,-9.174926163e-06
0.02058333333,-9.943305486e-06
0.02060416667,-1.107855951e-05
0.020625,-1.135414186e-05
0.02064583333,-1.139734923e-05
0.02066666667,-1.204624823e-05
0.0206875,-1.184963548e-05
0.02070833333,-1.235127547e-05
0.02072916667,-1.161891123e-05
0.02075,-1.12207963e-05
0.02077083333,-1.117932879e-05
0.02079166667,-1.113473627e-05
0.0208125,-1.292178513e-05
0.02083333333,-1.263215563e-05
0.02085416667,-1.246018473e-05
0.020875,-1.374354724e-05
0.02089583333,-1.364385025e-05
0.02091666667,-1.540519952e-05
0.0209375,-1.72046839e-05
0.02095833333,-1.741684537e-05
0.02097916667,-1.769063783e-05
0.021,-1.784513006e-05
0.02102083333,-1.687069744e-05
0.02104166667,-1.874569716e-05
0.0210625,-1.966179479e-05
0.02108333333,-2.061086889e-05
0.02110416667,-2.186129859e-05
0.021125,-2.265955482e-05
0.02114583333,-2.313579353e-05
0.02116666667,-2.357345147e-05
0.0211875,-2.759729614e-05
0.02120833333,-3.027499588e-05
0.02122916667,-3.104842835e-05
0.02125,-3.078842565e-05
0.02127083333,-2.902372398e-05
0.02129166667,-2.967397268e-05
0.0213125,-3.250418013e-05
0.02133333333,-3.286041465e-05
0.02135416667,-3.317996743e-05
0.021375,-3.336353984e-05
0.02139583333,-3.296216164e-05
0.02141666667,-3.326519072e-05
0.0214375,-3.578675023e-05
0.02145833333,-3.810007183e-05
0.02147916667,-4.018901382e-05
0.0215,-3.90965215e-05
0.02152083333,-3.850732537e-05
0.02154166667,-3.763176574e-05
0.0215625,-3.937185102e-05
0.02158333333,-4.157232252e-05
0.02160416667,-4.300017099e-05
0.021625,-4.318789433e-05
0.02164583333,-4.179430471e-05
0.02166666667,-4.299092689e-05
0.0216875,-4.516631816e-05
0.02170833333,-4.837360393e-05
0.02172916667,-5.025591236e-05
0.02175,-4.984059706e-05
0.02177083333,-5.07060322e-05
0.02179166667,-4.993203402e-05
0.0218125,-5.040268661e-05
0.02183333333,-5.275753574e-05
0.02185416667,-5.508701724e-05
0.021875,-5.544066516e-05
0.02189583333,-5.380312359e-05
0.02191666667,-5.239231177e-05
0.0219375,-5.576357216e-05
0.02195833333,-5.958586917e-05
0.02197916667,-6.308746379e-05
0.022,-6.56912016e-05
0.02202083333,-6.336903607e-05
0.02204166667,-6.270132872e-05
0.0220625,-6.342992128e-05
0.02208333333,-6.342575216e-05
0.02210416667,-6.604803639e-05
0.022125,-6.751631736e-05
0.02214583333,-6.627501716e-05
0.02216666667,-6.771418703e-05
0.0221875,-6.928598305e-05
0.02220833333,-7.396037108e-05
0.02222916667,-7.645793812e-05
0.02225,-7.63861899e-05
0.02227083333,-7.624896534e-05
0.02229166667,-7.647533494e-05
0.0223125,-7.865877706e-05
0.02233333333,-8.112240175e-05
0.02235416667,-8.375943435e-05
0.022375,-8.435247582e-05
0.02239583333,-8.142551087e-05
0.02241666667,-7.951037696e-05
0.0224375,-7.978985377e-05
0.02245833333,-8.223050099e-05
0.02247916667,-8.842309035e-05
0.0225,-9.443920862e-05
0.02252083333,-9.682925156e-05
0.02254166667,-9.838350525e-05
0.0225625,-9.544765635e-05
0.02258333333,-9.37979712e-05
0.02260416667,-9.518562001e-05
0.022625,-9.699494694e-05
0.02264583333,-9.960478928e-05
0.02266666667,-9.977059381e-05
0.0226875,-9.809459152e-05
0.02270833333,-9.885327745e-05
0.02272916667,-9.976540605e-05
0.02275,-0.000101600468
0.02277083333,-0.0001051630461
0.02279166667,-0.0001065581964
0.0228125,-0.0001099986766
0.02283333333,-0.0001104497351
0.02285416667,-0.0001125756462
0.022875,-0.0001150993776
0.02289583333,-0.0001144039779
0.02291666667,-0.0001140727254
0.0229375,-0.0001126823554
0.02295833333,-0.0001126882271
0.02297916667,-0.0001139682645
0.023,-0.0001172987759
0.02302083333,-0.0001218782345
0.02304166667,-0.0001246677275
0.0230625,-0.0001270131324
0.02308333333,-0.0001252963993
0.02310416667,-0.0001241259451
0.023125,-0.0001279305725
0.02314583333,-0.0001294697722
0.02316666667,-0.0001314045367
0.0231875,-0.0001346255594
0.02320833333,-0.0001317265705
0.02322916667,-0.0001306089835
0.02325,-0.0001320103038
0.02327083333,-0.0001326109632
0.02329166667,-0.0001358347363
0.0233125,-0.0001406505908
0.02333333333,-0.0001421561756
0.02335416667,-0.0001441511267
0.023375,-0.000146047867
0.02339583333,-0.0001464136149
0.02341666667,-0.0001497624326
0.0234375,-0.0001535360352
0.02345833333,-0.0001521724771
0.02347916667,-0.0001521191298
0.0235,-0.0001534852636
0.02352083333,-0.0001551172318
0.02354166667,-0.0001607846498
0.0235625,-0.0001656011009
0.02358333333,-0.0001693176018
0.02360416667,-0.0001711799705
0.023625,-0.0001710645593
0.02364583333,-0.0001704168826
0.02366666667,-0.0001732778328
0.0236875,-0.0001780639432
0.02370833333,-0.0001831332338
0.02372916667,-0.0001860937627
0.02375,-0.0001870848646
0.02377083333,-0.00018548152
0.02379166667,-0.0001878040493
0.0238125,-0.0001892093132
0.02383333333,-0.0001956459018
0.02385416667,-0.0002001381217
0.023875,-0.0002017058287
0.02389583333,-0.0002027016599
0.02391666667,-0.0002049874747
0.0239375,-0.00020957792
0.02395833333,-0.0002108611661
0.02397916667,-0.0002126461623
0.024,-0.0002125622559
0.02402083333,-0.0002140392171
0.02404166667,-0.0002174146794
0.0240625,-0.000222827075
0.02408333333,-0.0002280377084
0.02410416667,-0.0002321910142
0.024125,-0.0002310523705
0.02414583333,-0.0002322448709
0.02416666667,-0.0002335074241
0.0241875,-0.0002345788962
0.02420833333,-0.000238372013
0.02422916667,-0.0002425704733
0.02425,-0.0002455316135
0.02427083333,-0.0002471125626
0.02429166667,-0.0002478979877
0.0243125,-0.0002495115914
0.02433333333,-0.0002531157515
0.02435416667,-0.0002581218141
0.024375,-0.0002605482005
0.02439583333,-0.0002609398798
0.02441666667,-0.000264592265
0.0244375,-0.0002677679586
0.02445833333,-0.0002690192487
0.02447916667,-0.0002705321531
0.0245,-0.0002723632788
0.02452083333,-0.0002744396334
0.02454166667,-0.0002766064135
0.0245625,-0.0002808117715
0.02458333333,-0.0002872810001
0.02460416667,-0.0002917008824
0.024625,-0.0002937109093
0.02464583333,-0.0002950849594
0.02466666667,-0.0002939806727
0.0246875,-0.0002971204813
0.02470833333,-0.0002979839337
0.02472916667,-0.0003021299199
0.02475,-0.0003080076713
0.02477083333,-0.0003087520308
0.02479166667,-0.0003099297464
0.0248125,-0.000313252036
0.02483333333,-0.0003165245871
0.02485416667,-0.0003194468736
0.024875,-0.00032232597
0.02489583333,-0.0003264324332
0.02491666667,-0.0003308728046
0.0249375,-0.0003342923592
0.02495833333,-0.0003342053387
0.02497916667,-0.0003319061652
0.025,-0.000333180913
0.02502083333,-0.0003360190312
0.02504166667,-0.0003411660146
0.0250625,-0.0003497783619
0.02508333333,-0.0003551589616
0.02510416667,-0.0003589717671
0.025125,-0.0003604014928
0.02514583333,-0.0003625203099
0.02516666667,-0.0003656111949
0.0251875,-0.0003717450891
0.02520833333,-0.0003750916803
0.02522916667,-0.0003798931721
0.02525,-0.0003832048969
0.02527083333,-0.0003860822471
0.02529166667,-0.0003867116175
0.0253125,-0.0003918734728
0.02533333333,-0.0003975360014
0.02535416667,-0.0004023094079
0.025375,-0.0004063805391
0.02539583333,-0.000409978762
0.02541666667,-0.0004132565518
0.0254375,-0.0004211280029
0.02545833333,-0.0004244751763
0.02547916667,-0.0004258275731
0.0255,-0.0004279713612
0.02552083333,-0.0004283972958
0.02554166667,-0.0004329817602
0.0255625,-0.0004421042686
0.02558333333,-0.0004464040976
0.02560416667,-0.0004502718512
0.025625,-0.0004551145248
0.02564583333,-0.0004555357737
0.02566666667,-0.0004612856719
0.0256875,-0.0004671853385
0.02570833333,-0.00047255971
0.02572916667,-0.0004774811969
0.02575,-0.0004826431687
0.02577083333,-0.000480603514
0.02579166667,-0.00048244957
0.0258125,-0.0004907709663
0.02583333333,-0.000496418681
0.02585416667,-0.0004996710923
0.025875,-0.0005046073929
0.02589583333,-0.0005053956411
0.02591666667,-0.0005085123703
0.0259375,-0.0005151148071
0.02595833333,-0.0005194966216
0.02597916667,-0.0005228637019
0.026,-0.0005259063328
0.02602083333,-0.0005256640143
0.02604166667,-0.0005281003541
0.0260625,-0.0005357980845
0.02608333333,-0.0005418652436
0.02610416667,-0.0005493973731
0.026125,-0.0005500320112
0.02614583333,-0.0005507257883
0.02616666667,-0.0005564745516
0.0261875,-0.0005623050965
0.02620833333,-0.0005682965275
0.02622916667,-0.0005784382811
0.02625,-0.0005813044845
0.02627083333,-0.0005840066588
0.02629166667,-0.0005862724502
0.0263125,-0.0005954032531
0.02633333333,-0.0006021377631
0.02635416667,-0.0006086061476
0.026375,-0.0006137246964
0.02639583333,-0.0006172097055
0.02641666667,-0.0006208906416
0.0264375,-0.0006286997232
0.02645833333,-0.0006359929685
0.02647916667,-0.0006455207476
0.0265,-0.0006473432295
0.02652083333,-0.0006496984279
0.02654166667,-0.0006541225594
0.0265625,-0.0006631858996
0.02658333333,-0.0006735899951
0.02660416667,-0.0006811514613
0.026625,-0.0006842594594
0.02664583333,-0.0006841648137
0.02666666667,-0.0006866236217
0.0266875,-0.0006936421269
0.02670833333,-0.0007038190961
0.02672916667,-0.0007119697984
0.02675,-0.0007151623722
0.02677083333,-0.000713434536
0.02679166667,-0.0007147659198
0.0268125,-0.0007207127637
0.02683333333,-0.0007320271106
0.02685416667,-0.0007446265081
0.026875,-0.0007491462748
0.02689583333,-0.0007466526004
0.02691666667,-0.0007480428903
0.0269375,-0.0007536091143
0.02695833333,-0.0007623799611
0.02697916667,-0.0007763823378
0.027,-0.0007863995852
0.02702083333,-0.000785956101
0.02704166667,-0.0007862295024
0.0270625,-0.0007946583792
0.02708333333,-0.0008034423226
0.02710416667,-0.0008174628601
0.027125,-0.0008249862585
0.02714583333,-0.0008250353858
0.02716666667,-0.0008280124748
0.0271875,-0.0008310749545
0.02720833333,-0.0008419536171
0.02722916667,-0.0008572096704
0.02725,-0.0008635695558
0.02727083333,-0.0008633151301
0.02729166667,-0.0008607236668
0.0273125,-0.0008658057195
0.02733333333,-0.0008775629685
0.02735416667,-0.0008939235704
0.027375,-0.0009033317911
0.02739583333,-0.000905940251
0.02741666667,-0.0009025802137
0.0274375,-0.0009025526233
0.02745833333,-0.0009093910339
0.02747916667,-0.0009270964074
0.0275,-0.0009421739378
0.02752083333,-0.0009502214962
0.02754166667,-0.00095051073
0.0275625,-0.0009497387218
0.02758333333,-0.0009533516131
0.02760416667,-0.000964791514
0.027625,-0.0009775251383
0.02764583333,-0.0009866243927
0.02766666667,-0.0009905283805
0.0276875,-0.0009855856188
0.02770833333,-0.0009857038967
0.02772916667,-0.0009941132739
0.02775,-0.001006270526
0.02777083333,-0.001016332302
0.02779166667,-0.001021166216
0.0278125,-0.001024249825
0.02783333333,-0.001030051149
0.02785416667,-0.001041250769
0.027875,-0.001052529435
0.02789583333,-0.001056144829
0.02791666667,-0.001062821131
0.0279375,-0.001067708712
0.02795833333,-0.001069046557
0.02797916667,-0.001083501498
0.028,-0.001095626387
0.02802083333,-0.001101482892
0.02804166667,-0.001110226964
0.0280625,-0.001119099441
0.02808333333,-0.001124309492
0.02810416667,-0.001136793988
0.028125,-0.00114546949
0.02814583333,-0.001154005527
0.02816666667,-0.001164109097
0.0281875,-0.001170239295
0.02820833333,-0.001175255398
0.02822916667,-0.001183251035
0.02825,-0.001192839001
0.02827083333,-0.00120087259
0.02829166667,-0.001209184877
0.0283125,-0.001217953512
0.02833333333,-0.001224561594
0.02835416667,-0.001234255265
0.028375,-0.001235123607
0.02839583333,-0.001242677099
0.02841666667,-0.00125669071
0.0284375,-0.001264595543
0.02845833333,-0.001265074708
0.02847916667,-0.001271288842
0.0285,-0.001280982397
0.02852083333,-0.001285547274
0.02854166667,-0.00129448995
0.0285625,-0.001305861748
0.02858333333,-0.00132508995
0.02860416667,-0.001343086478
0.028625,-0.001353696221
0.02864583333,-0.001351253828
0.02866666667,-0.001356935827
0.0286875,-0.00135722314
0.02870833333,-0.001370670856
0.02872916667,-0.001394790597
0.02875,-0.001415925333
0.02877083333,-0.001415695413
0.02879166667,-0.001417277614
0.0288125,-0.001418641419
0.02883333333,-0.001420019078
0.02885416667,-0.00143914076
0.028875,-0.00146466319
0.02889583333,-0.001467108959
0.02891666667,-0.00147751742
0.0289375,-0.001479809987
0.02895833333,-0.001473954995
0.02897916667,-0.00148485729
0.029,-0.001504684449
0.02902083333,-0.001512102783
0.02904166667,-0.001524877851
0.0290625,-0.001535082702
0.02908333333,-0.001549913432
0.02910416667,-0.001567106578
0.029125,-0.001583514269
0.02914583333,-0.001581243589
0.02916666667,-0.001592677901
0.0291875,-0.001590776606
0.02920833333,-0.001596440445
0.02922916667,-0.001609268598
0.02925,-0.001630645827
0.02927083333,-0.001656156615
0.02929166667,-0.001660173875
0.0293125,-0.001668744255
0.02933333333,-0.001660727547
0.02935416667,-0.001666786498
0.029375,-0.001691568526
0.02939583333,-0.001692031859
0.02941666667,-0.001722502755
0.0294375,-0.001736673177
0.02945833333,-0.00173690042
0.02947916667,-0.001715615974
0.0295,-0.001716453466
0.02952083333,-0.00171404297
0.02954166667,-0.001741633285
0.0295625,-0.001770459116
0.02958333333,-0.001783772488
0.02960416667,-0.001817039214
0.029625,-0.001803977415
0.02964583333,-0.001801038976
0.02966666667,-0.001794924377
0.0296875,-0.001813962241
0.02970833333,-0.001851763343
0.02972916667,-0.001844473532
0.02975,-0.001859445241
0.02977083333,-0.001824584557
0.02979166667,-0.001839369885
0.0298125,-0.001849270426
0.02983333333,-0.001872779452
0.02985416667,-0.001934896805
0.029875,-0.001934148371
0.02989583333,-0.00185731845
0.02991666667,-0.001812325907
0.0299375,-0.00186815951
0.02995833333,-0.002056684112
0.02997916667,-0.002273567254
0.03,-0.00107585045
0.03002083333,-0.001237744931
0.03004166667,-0.001444216934
0.0300625,-0.00148162141
0.03008333333,-0.001436228282
0.03010416667,-0.0013525791
0.030125,-0.001358418027
0.03014583333,-0.00140034291
0.03016666667,-0.001454698388
0.0301875,-0.001433035824
0.03020833333,-0.001452895231
0.03022916667,-0.00141218747
0.03025,-0.001411940204
0.03027083333,-0.001359056798
0.03029166667,-0.001390878344
0.0303125,-0.001389127458
0.03033333333,-0.001366784098
0.03035416667,-0.001334762201
0.030375,-0.001307944534
0.03039583333,-0.001309258165
0.03041666667,-0.001260651858
0.0304375,-0.001277558273
0.03045833333,-0.001293697744
0.03047916667,-0.001295786584
0.0305,-0.001223349129
0.03052083333,-0.001211759867
0.03054166667,-0.001167980605
0.0305625,-0.00121853943
0.03058333333,-0.001209988724
0.03060416667,-0.001218468766
0.030625,-0.001223420375
0.03064583333,-0.001224132488
0.03066666667,-0.001145308022
0.0306875,-0.001184995053
0.03070833333,-0.001144721871
0.03072916667,-0.001168244751
0.03075,-0.001147953328
0.03077083333,-0.001175580663
0.03079166667,-0.001122667454
0.0308125,-0.001111497637
0.03083333333,-0.001140659559
0.03085416667,-0.001090391772
0.030875,-0.001093413564
0.03089583333,-0.001076514134
0.03091666667,-0.0009723307448
0.0309375,-0.001007801271
0.03095833333,-0.001043788274
0.03097916667,-0.0009981839685
0.031,-0.0009564483189
0.03102083333,-0.000927825633
0.03104166667,-0.0009306575521
0.0310625,-0.000869386422
0.03108333333,-0.0008539115661
0.03110416667,-0.0007775497506
0.031125,-0.0007812654949
0.03114583333,-0.0007061156211
0.03116666667,-0.0007009140099
0.0311875,-0.000582654553
0.03120833333,-0.0005986624747
0.03122916667,-0.0005489094183
0.03125,-0.0005561194848
0.03127083333,-0.000493434025
0.03129166667,-0.0004629253526
0.0313125,-0.0003991725389
0.03133333333,-0.0003503236512
0.03135416667,-0.000272422476
0.031375,-0.000283242669
0.03139583333,-0.0001948555728
0.03141666667,-0.0001772274409
0.0314375,-0.0001714825776
0.03145833333,-0.0001907848637
0.03147916667,-0.0001784482156
0.0315,-0.000129240274
0.03152083333,-0.00011942118
0.03154166667,-0.0001052971202
0.0315625,-4.938996062e-05
0.03158333333,-7.14309499e-05
0.03160416667,-6.647373812e-05
0.031625,-1.457592953e-05
0.03164583333,3.552861017e-05
0.03166666667,1.697821062e-05
0.0316875,7.928771083e-06
0.03170833333,9.000093996e-06
0.03172916667,5.520702689e-05
0.03175,4.570016608e-05
0.03177083333,5.012828478e-05
0.03179166667,0.0001322179014
0.0318125,0.000134171627
0.03183333333,0.0001651472121
0.03185416667,8.974189404e-05
0.031875,0.000213831052
0.03189583333,0.0002301093482
0.03191666667,0.0003302422701
0.0319375,0.0002501875279
0.03195833333,0.0003764680878
0.03197916667,0.0003054497647
0.032,0.0003871417721
0.03202083333,0.0004192317429
0.03204166667,0.0004651815689
0.0320625,0.0005008212756
0.03208333333,0.0005110484781
0.03210416667,0.0005088120815
0.032125,0.000512269442
0.03214583333,0.0005022843252
0.03216666667,0.0005009481101
0.0321875,0.0005201891763
0.03220833333,0.0005034238566
0.03222916667,0.0004908649717
0.03225,0.0004876319144
0.03227083333,0.0004993281909
0.03229166667,0.0004390246177
0.0323125,0.000451344531
0.03233333333,0.000429168198
0.03235416667,0.0004376613651
0.032375,0.0004839954199
0.03239583333,0.0005432406906
0.03241666667,0.0005716945161
0.0324375,0.000694866816
0.03245833333,0.0007116703782
0.03247916667,0.0008240545867
0.0325,0.0008230205276
0.03252083333,0.0009363949648
0.03254166667,0.0009317357908
0.0325625,0.001000121236
0.03258333333,0.001014615293
0.03260416667,0.001068082987
0.032625,0.001088034129
0.03264583333,0.001112210681
0.03266666667,0.001095025451
0.0326875,0.001192056341
0.03270833333,0.001239830395
0.03272916667,0.001269219676
0.03275,0.001405858435
0.03277083333,0.001470901654
0.03279166667,0.001504384447
0.0328125,0.001557131647
0.03283333333,0.001661224989
0.03285416667,0.001790175214
0.032875,0.001830127905
0.03289583333,0.001910179737
0.03291666667,0.002035546117
0.0329375,0.002120586578
0.03295833333,0.002231505001
0.03297916667,0.0023288948
0.033,0.00229749037
0.03302083333,0.002364194021
0.03304166667,0.002418476157
0.0330625,0.002418467309
0.03308333333,0.002461858792
0.03310416667,0.002480359282
0.033125,0.002523690229
0.03314583333,0.002539079636
0.03316666667,0.00259282114
0.0331875,0.002610981464
0.03320833333,0.002702840371
0.03322916667,0.002777355723
0.03325,0.002825023374
0.03327083333,0.002932544332
0.03329166667,0.003006294603
0.0333125,0.003100762377
0.03333333333,0.003164787544
0.03335416667,0.003207967849
0.033375,0.003302044002
0.03339583333,0.003377228742
0.03341666667,0.003420645604
0.0334375,0.003496447811
0.03345833333,0.003559191246
0.03347916667,0.003551243572
0.0335,0.003635454923
0.03352083333,0.003662196686
0.03354166667,0.003651979612
0.0335625,0.003700920148
0.03358333333,0.00372683024
0.03360416667,0.003795321332
0.033625,0.003799211001
0.03364583333,0.003828943009
0.03366666667,0.003845107043
0.0336875,0.003849039786
0.03370833333,0.003826759988
0.03372916667,0.003858906915
0.03375,0.003845870262
0.03377083333,0.003824905027
0.03379166667,0.003790065413
0.0338125,0.003831342561
0.03383333333,0.003882341785
0.03385416667,0.003928170074
0.033875,0.003924211487
0.03389583333,0.004001461901
0.03391666667,0.004016882274
0.0339375,0.004016672727
0.03395833333,0.004064986482
0.03397916667,0.004141881131
0.034,0.004220359959
0.03402083333,0.004297362641
0.03404166667,0.004374949727
0.0340625,0.004436805379
0.03408333333,0.004453477915
0.03410416667,0.004508721642
0.034125,0.004547183868
0.03414583333,0.004513363354
0.03416666667,0.004564685747
0.0341875,0.004544971976
0.03420833333,0.004549069796
0.03422916667,0.004500188399
0.03425,0.004522379488
0.03427083333,0.004494042601
0.03429166667,0.004530371632
0.0343125,0.004525871482
0.03433333333,0.004548063036
0.03435416667,0.004588278476
0.034375,0.00465019187
0.03439583333,0.004697786644
0.03441666667,0.004708053079
0.0344375,0.004715617746
0.03445833333,0.004725602921
0.03447916667,0.00476561673
0.0345,0.004816462286
0.03452083333,0.004861034919
0.03454166667,0.004916911945
0.0345625,0.004936645273
0.03458333333,0.004991805181
0.03460416667,0.005047152285
0.034625,0.005130703095
0.03464583333,0.005176878069
0.03466666667,0.005239694379
0.0346875,0.005286354106
0.03470833333,0.005371454172
0.03472916667,0.005439784378
0.03475,0.005493023898
0.03477083333,0.005561933853
0.03479166667,0.005612577312
0.0348125,0.005664101802
0.03483333333,0.005615999456
0.03485416667,0.00571526913
0.034875,0.005720235407
0.03489583333,0.005755422171
0.03491666667,0.005779725965
0.0349375,0.00587883871
0.03495833333,0.005939972587
0.03497916667,0.006005480886
0.035,0.006086139008
0.03502083333,0.006235017441
0.03504166667,0.006277431268
0.0350625,0.006304337643
0.03508333333,0.006383666769
0.03510416667,0.006411746144
0.035125,0.006402172148
0.03514583333,0.006412270945
0.03516666667,0.006377501413
0.0351875,0.00631631352
0.03520833333,0.006326301489
0.03522916667,0.006325706374
0.03525,0.006341365166
0.03527083333,0.006388351321
0.03529166667,0.006369082257
0.0353125,0.006395465229
0.03533333333,0.006380801555
0.03535416667,0.006415434182
0.035375,0.006390741561
0.03539583333,0.006329621188
0.03541666667,0.006346773356
0.0354375,0.006296062842
0.03545833333,0.006324823946
0.03547916667,0.006359644234
0.0355,0.006421581376
0.03552083333,0.006450195797
0.03554166667,0.006587259937
0.0355625,0.006672240328
0.03558333333,0.006756264716
0.03560416667,0.00685737934
0.035625,0.006931249518
0.03564583333,0.007022188045
0.03566666667,0.007055037189
0.0356875,0.007112524472
0.03570833333,0.007158472203
0.03572916667,0.007185283583
0.03575,0.007235925645
0.03577083333,0.007218329702
0.03579166667,0.007304474711
0.0358125,0.007345945574
0.03583333333,0.007362917997
0.03585416667,0.007332261186
0.035875,0.00733828079
0.03589583333,0.007369149476
0.03591666667,0.007346604019
0.0359375,0.007448053919
0.03595833333,0.007441275753
0.03597916667,0.007408119738
0.036,0.007453577593
0.03602083333,0.007454655599
0.03604166667,0.007495990023
0.0360625,0.007612132933
0.03608333333,0.007656594738
0.03610416667,0.007674634922
0.036125,0.007782358211
0.03614583333,0.007796222344
0.03616666667,0.007814357057
0.0361875,0.007801122032
0.03620833333,0.007833735086
0.03622916667,0.007867068052
0.03625,0.007873006165
0.03627083333,0.007942512631
0.03629166667,0.008011553437
0.0363125,0.008049997501
0.03633333333,0.008180606179
0.03635416667,0.008235274814
0.036375,0.008304015733
0.03639583333,0.008426991291
0.03641666667,0.008432802744
0.0364375,0.008441394195
0.03645833333,0.008453973569
0.03647916667,0.008487179875
0.0365,0.008451414295
0.03652083333,0.008423674852
0.03654166667,0.008452203125
0.0365625,0.008508486673
0.03658333333,0.008581407368
0.03660416667,0.008590761572
0.036625,0.008601067588
0.03664583333,0.00856164936
0.03666666667,0.008595575579
0.0366875,0.008604466915
0.03670833333,0.008563350886
0.03672916667,0.008626677096
0.03675,0.008618417196
0.03677083333,0.008695621043
0.03679166667,0.008795472793
0.0368125,0.008800733835
0.03683333333,0.008891540579
0.03685416667,0.008847636171
0.036875,0.008892917074
0.03689583333,0.008958773687
0.03691666667,0.00904303696
0.0369375,0.009032867849
0.03695833333,0.009145806544
0.03697916667,0.009182286449
0.037,0.00918653328
0.03702083333,0.009139148518
0.03704166667,0.009238877334
0.0370625,0.009201580659
0.03708333333,0.00913849473
0.03710416667,0.009078019299
0.037125,0.009068997577
0.03714583333,0.00907856971
0.03716666667,0.009105911478
0.0371875,0.00904159341
0.03720833333,0.009069574066
0.03722916667,0.009027455933
0.03725,0.008950502612
0.03727083333,0.008930811659
0.03729166667,0.008878776804
0.0373125,0.008825649507
0.03733333333,0.008746697567
0.03735416667,0.008699353784
0.037375,0.008772559464
0.03739583333,0.00884575583
0.03741666667,0.008848789148
0.0374375,0.008962738328
0.03745833333,0.008966150694
0.03747916667,0.008971526287
0.0375,0.008950201795
0.03752083333,0.008932465687
0.03754166667,0.008864944801
0.0375625,0.008923803456
0.03758333333,0.00887888018
0.03760416667,0.008912557736
0.037625,0.008867799304
0.03764583333,0.008820706978
0.03766666667,0.008756631985
0.0376875,0.008799738251
0.03770833333,0.008754101582
0.03772916667,0.008708655834
0.03775,0.008640501648
0.03777083333,0.008649479598
0.03779166667,0.008651855402
0.0378125,0.008690371178
0.03783333333,0.00868949201
0.03785416667,0.008786553517
0.037875,0.00880882889
0.03789583333,0.008861449547
0.03791666667,0.008902222849
0.0379375,0.008998310193
0.03795833333,0.00918501243
0.03797916667,0.009242249653
0.038,0.009352315217
0.03802083333,0.009444478899
0.03804166667,0.009542783722
0.0380625,0.009550590068
0.03808333333,0.009597400203
0.03810416667,0.009684510529
0.038125,0.009696042165
0.03814583333,0.009758342989
0.03816666667,0.009801395237
0.0381875,0.009794818237
0.03820833333,0.009878916666
0.03822916667,0.009922353551
0.03825,0.01000202168
0.03827083333,0.01000343356
0.03829166667,0.01008224208
0.0383125,0.01008869335
0.03833333333,0.01019133255
0.03835416667,0.01022333559
0.038375,0.01032284368
0.03839583333,0.01038124878
0.03841666667,0.01043777913
0.0384375,0.01055518538
0.03845833333,0.01061951369
0.03847916667,0.01072381996
0.0385,0.01082766522
0.03852083333,0.01094368007
0.03854166667,0.01105203293
0.0385625,0.01112325676
0.03858333333,0.01119939424
0.03860416667,0.01132488716
0.038625,0.01133728027
0.03864583333,0.01134478953
0.03866666667,0.01129375584
0.0386875,0.01131161768
0.03870833333,0.01127006859
0.03872916667,0.01132640988
0.03875,0.01125212945
0.03877083333,0.01134812925
0.03879166667,0.01130545698
0.0388125,0.01128100511
0.03883333333,0.01130719204
0.03885416667,0.01138081402
0.038875,0.01134203654
0.03889583333,0.01138322707
0.03891666667,0.01125712879
0.0389375,0.01120929234
0.03895833333,0.01111522876
0.03897916667,0.01109912898
0.039,0.01106449589
0.03902083333,0.01104236767
0.03904166667,0.01098601706
0.0390625,0.01085650176
0.03908333333,0.0108781904
0.03910416667,0.01079112291
0.039125,0.01073695347
0.03914583333,0.01075463369
0.03916666667,0.01069724932
0.0391875,0.0106189847
0.03920833333,0.01054106094
0.03922916667,0.01050494239
0.03925,0.0104517797
0.03927083333,0.01046753116
0.03929166667,0.0104621388
0.0393125,0.01034125034
0.03933333333,0.01027644332
0.03935416667,0.01010539569
0.039375,0.010093919
0.03939583333,0.009981593117
0.03941666667,0.009909359738
0.0394375,0.009808333591
0.03945833333,0.009766063653
0.03947916667,0.009782674722
0.0395,0.009840846062
0.03952083333,0.009856626391
0.03954166667,0.009874734096
0.0395625,0.009796278551
0.03958333333,0.009908119217
0.03960416667,0.009788945317
0.039625,0.009827439673
0.03964583333,0.009883601218
0.03966666667,0.009869740345
0.0396875,0.009904935956
0.03970833333,0.00986429397
0.03972916667,0.009905644692
0.03975,0.009980302304
0.03977083333,0.01005229168
0.03979166667,0.01005803235
0.0398125,0.01012902707
0.03983333333,0.01014005393
0.03985416667,0.01017878484
0.039875,0.01007754728
0.03989583333,0.01011470333
0.03991666667,0.009996594861
0.0399375,0.009970053099
0.03995833333,0.009929396212
0.03997916667,0.009866062552
0.04,0.009913517162
0.04002083333,0.00979164429
0.04004166667,0.009784425609
0.0400625,0.009817890823
0.04008333333,0.009693083353
0.04010416667,0.009740202688
0.040125,0.009712532163
0.04014583333,0.009713227861
0.04016666667,0.009707855992
0.0401875,0.009667741135
0.04020833333,0.009563719854
0.04022916667,0.00955752749
0.04025,0.009428222664
0.04027083333,0.009315483272
0.04029166667,0.009265556931
0.0403125,0.009157963097
0.04033333333,0.009151424281
0.04035416667,0.009003902785
0.040375,0.00887771789
0.04039583333,0.008804795332
0.04041666667,0.008654433303
0.0404375,0.008580466732
0.04045833333,0.008524574339
0.04047916667,0.008354102261
0.0405,0.008301003836
0.04052083333,0.008142184466
0.04054166667,0.008083101362
0.0405625,0.007923700847
0.04058333333,0.007866494358
0.04060416667,0.007632470224
0.040625,0.007398885209
0.04064583333,0.00716297375
0.04066666667,0.007094773464
0.0406875,0.006876095198
0.04070833333,0.006797275506
0.04072916667,0.006591607351
0.04075,0.006586756557
0.04077083333,0.006564828102
0.04079166667,0.006579246372
0.0408125,0.006492167246
0.04083333333,0.006390394643
0.04085416667,0.006366054527
0.040875,0.006316223647
0.04089583333,0.006227734499
0.04091666667,0.006031860132
0.0409375,0.006061473396
0.04095833333,0.005814954173
0.04097916667,0.005769849755
0.041,0.005760675762
0.04102083333,0.005532997195
0.04104166667,0.005560353864
0.0410625,0.00542765623
0.04108333333,0.005341062788
0.04110416667,0.00527216075
0.041125,0.005069868639
0.04114583333,0.005072996952
0.04116666667,0.004828952253
0.0411875,0.004668743815
0.04120833333,0.004500811454
0.04122916667,0.004408957437
0.04125,0.004247359466
0.04127083333,0.004171928857
0.04129166667,0.003928221762
0.0413125,0.003988474142
0.04133333333,0.003885649145
0.04135416667,0.003843714716
0.041375,0.003763246117
0.04139583333,0.00368586299
0.04141666667,0.00361008849
0.0414375,0.003515308257
0.04145833333,0.003389271442
0.04147916667,0.00339089823
0.0415,0.003284730483
0.04152083333,0.003254008247
0.04154166667,0.003143766662
0.0415625,0.0029739202
0.04158333333,0.00292745186
0.04160416667,0.002778931521
0.041625,0.002696309937
0.04164583333,0.002727786778
0.04166666667,0.002764876699
0.0416875,0.002720990917
0.04170833333,0.002734346781
0.04172916667,0.002573741367
0.04175,0.002508564619
0.04177083333,0.00242453767
0.04179166667,0.002261001151
0.0418125,0.002292234916
0.04183333333,0.002206550445
0.04185416667,0.002123010112
0.041875,0.002287063049
0.04189583333,0.002105131047
0.04191666667,0.002291326178
0.0419375,0.002124739811
0.04195833333,0.002329011681
0.04197916667,0.002284031827
0.042,0.002284146613
0.04202083333,0.002304242691
0.04204166667,0.002350765048
0.0420625,0.002434709109
0.04208333333,0.002433604794
0.04210416667,0.002392865717
0.042125,0.002472339664
0.04214583333,0.002414953662
0.04216666667,0.002336111851
0.0421875,0.002256422536
0.04220833333,0.002136749448
0.04222916667,0.00207968289
0.04225,0.00195799768
0.04227083333,0.001976513769
0.04229166667,0.001857366529
0.0423125,0.001814556192
0.04233333333,0.001775166485
0.04235416667,0.001680985559
0.042375,0.001723393681
0.04239583333,0.001687745447
0.04241666667,0.00158991816
0.0424375,0.001635491033
0.04245833333,0.001517844736
0.04247916667,0.001562558347
0.0425,0.001478471211
0.04252083333,0.001477498095
0.04254166667,0.001427105628
0.0425625,0.001465893816
0.04258333333,0.00143607182
0.04260416667,0.001512149815
0.042625,0.001443554182
0.04264583333,0.001476322999
0.04266666667,0.001385107404
0.0426875,0.001334824483
0.04270833333,0.0012373887
0.04272916667,0.001230524853
0.04275,0.001138964901
0.04277083333,0.001082641189
0.04279166667,0.0007579496596
0.0428125,0.0006650672294
0.04283333333,0.0006291643949
0.04285416667,0.0005191132077
0.042875,0.0003394328523
0.04289583333,0.0002818648063
0.04291666667,0.0002296094317
0.0429375,0.0001345833152
0.04295833333,5.958636029e-05
0.04297916667,2.690363181e-05
0.043,-4.932023148e-05
0.04302083333,-8.502084529e-05
0.04304166667,-0.0001474575693
0.0430625,-0.0002290485136
0.04308333333,-0.0003699286026
0.04310416667,-0.0004075116885
0.043125,-0.0004233639338
0.04314583333,-0.0005843903637
0.04316666667,-0.0006445429754
0.0431875,-0.0008292667917
0.04320833333,-0.0009712257306
0.04322916667,-0.001127570984
0.04325,-0.001260315883
0.04327083333,-0.00144086848
0.04329166667,-0.001659719273
0.0433125,-0.001814079937
0.04333333333,-0.001828643493
0.04335416667,-0.001959446818
0.043375,-0.002076021163
0.04339583333,-0.002215404995
0.04341666667,-0.00238708104
0.0434375,-0.002563963877
0.04345833333,-0.002660033293
0.04347916667,-0.002892042045
0.0435,-0.002941676416
0.04352083333,-0.002975719748
0.04354166667,-0.003088312689
0.0435625,-0.003122272203
0.04358333333,-0.00313574099
0.04360416667,-0.003101334441
0.043625,-0.003110039514
0.04364583333,-0.003074646229
0.04366666667,-0.00306455791
0.0436875,-0.003156797262
0.04370833333,-0.003248745343
0.04372916667,-0.003215778386
0.04375,-0.003261197358
0.04377083333,-0.003307222854
0.04379166667,-0.003335172543
0.0438125,-0.003340811236
0.04383333333,-0.003429003758
0.04385416667,-0.003457077779
0.043875,-0.003542399034
0.04389583333,-0.003580778837
0.04391666667,-0.003604123835
0.0439375,-0.003608191153
0.04395833333,-0.003638293361
0.04397916667,-0.003605671693
0.044,-0.003613031469
0.04402083333,-0.003596711205
0.04404166667,-0.003660858609
0.0440625,-0.003599880496
0.04408333333,-0.003601609264
0.04410416667,-0.003586671082
0.044125,-0.003553847084
0.04414583333,-0.003537836717
0.04416666667,-0.003435924184
0.0441875,-0.003375182161
0.04420833333,-0.003416117979
0.04422916667,-0.003439354477
0.04425,-0.003502227832
0.04427083333,-0.003462796798
0.04429166667,-0.003544729901
0.0443125,-0.00362590095
0.04433333333,-0.003708018688
0.04435416667,-0.003784043947
0.044375,-0.00382028427
0.04439583333,-0.003836435033
0.04441666667,-0.003873703536
0.0444375,-0.003951565363
0.04445833333,-0.003946325742
0.04447916667,-0.003986305092
0.0445,-0.004047944676
0.04452083333,-0.004152924754
0.04454166667,-0.004090252798
0.0445625,-0.004067027941
0.04458333333,-0.004026586656
0.04460416667,-0.004026150331
0.044625,-0.003966492601
0.04464583333,-0.003944587894
0.04466666667,-0.003923983313
0.0446875,-0.003898761235
0.04470833333,-0.003811921692
0.04472916667,-0.003742838511
0.04475,-0.003696115687
0.04477083333,-0.00367304543
0.04479166667,-0.003668870777
0.0448125,-0.003620601259
0.04483333333,-0.003550741589
0.04485416667,-0.003536125179
0.044875,-0.003547356231
0.04489583333,-0.003539350117
0.04491666667,-0.00359181012
0.0449375,-0.003566216677
0.04495833333,-0.003561326768
0.04497916667,-0.00351266237
0.045,-0.003404776333
0.04502083333,-0.003297274001
0.04504166667,-0.0032738382
0.0450625,-0.003335377434
0.04508333333,-0.00335266511
0.04510416667,-0.003326225094
0.045125,-0.003321523778
0.04514583333,-0.003276503179
0.04516666667,-0.00323968241
0.0451875,-0.003187115071
0.04520833333,-0.00321570877
0.04522916667,-0.003141170135
0.04525,-0.002981747733
0.04527083333,-0.002882059431
0.04529166667,-0.00278396369
0.0453125,-0.002687927568
0.04533333333,-0.002615503035
0.04535416667,-0.002523581265
0.045375,-0.002530549886
0.04539583333,-0.002476473339
0.04541666667,-0.002459975891
0.0454375,-0.002483628923
0.04545833333,-0.002531950595
0.04547916667,-0.002596549457
0.0455,-0.00270437263
0.04552083333,-0.002710853238
0.04554166667,-0.002859274857
0.0455625,-0.002928465605
0.04558333333,-0.003041240387
0.04560416667,-0.003230601083
0.045625,-0.00338127045
0.04564583333,-0.003616516013
0.04566666667,-0.003785595298
0.0456875,-0.003898329102
0.04570833333,-0.00399201829
0.04572916667,-0.004063910339
0.04575,-0.004139163066
0.04577083333,-0.004230524413
0.04579166667,-0.004300109111
0.0458125,-0.004410869442
0.04583333333,-0.004525327589
0.04585416667,-0.00467522582
0.045875,-0.004708445631
0.04589583333,-0.004737546667
0.04591666667,-0.004789764062
0.0459375,-0.00477999635
0.04595833333,-0.004729699343
0.04597916667,-0.004740922712
0.046,-0.004649411421
0.04602083333,-0.004682396073
0.04604166667,-0.004590728786
0.0460625,-0.00457535591
0.04608333333,-0.004501211457
0.04610416667,-0.004465008155
0.046125,-0.004533564672
0.04614583333,-0.004478023853
0.04616666667,-0.00442138128
0.0461875,-0.004381659906
0.04620833333,-0.004325492773
0.04622916667,-0.004363831133
0.04625,-0.004303084686
0.04627083333,-0.004240613431
0.04629166667,-0.004235174973
0.0463125,-0.004254515283
0.04633333333,-0.00422837818
0.04635416667,-0.004232938401
0.046375,-0.004117312841
0.04639583333,-0.004124004394
0.04641666667,-0.004109261557
0.0464375,-0.00404117303
0.04645833333,-0.004030809738
0.04647916667,-0.003995415289
0.0465,-0.003920633812
0.04652083333,-0.003821083345
0.04654166667,-0.003781036474
0.0465625,-0.003742262023
0.04658333333,-0.003651911393
0.04660416667,-0.003576129908
0.046625,-0.003502044827
0.04664583333,-0.003307570703
0.04666666667,-0.003194733057
0.0466875,-0.003142947797
0.04670833333,-0.003037164453
0.04672916667,-0.003013618989
0.04675,-0.002922889777
0.04677083333,-0.002877649851
0.04679166667,-0.002748051658
0.0468125,-0.002740739379
0.04683333333,-0.002717972035
0.04685416667,-0.002666930202
0.046875,-0.002660318976
0.04689583333,-0.00252862554
0.04691666667,-0.002539692679
0.0469375,-0.002467435086
0.04695833333,-0.002385033527
0.04697916667,-0.002380148275
0.047,-0.002400376368
0.04702083333,-0.002480018185
0.04704166667,-0.00241605076
0.0470625,-0.002414364833
0.04708333333,-0.002408119384
0.04710416667,-0.002409025561
0.047125,-0.002350045834
0.04714583333,-0.002468427178
0.04716666667,-0.002450243337
0.0471875,-0.00245093694
0.04720833333,-0.00247246027
0.04722916667,-0.002493865322
0.04725,-0.002462845296
0.04727083333,-0.002484478056
0.04729166667,-0.002568350872
0.0473125,-0.002627658658
0.04733333333,-0.002632036572
0.04735416667,-0.002732840367
0.047375,-0.002754133893
0.04739583333,-0.002777466085
0.04741666667,-0.002721132711
0.0474375,-0.002818862675
0.04745833333,-0.002761243377
0.04747916667,-0.002826587763
0.0475,-0.002811165992
0.04752083333,-0.00291778706
0.04754166667,-0.002883619862
0.0475625,-0.002960561542
0.04758333333,-0.002863786183
0.04760416667,-0.002863466507
0.047625,-0.00286850892
0.04764583333,-0.002894744277
0.04766666667,-0.002804314252
0.0476875,-0.002763320692
0.04770833333,-0.00264892308
0.04772916667,-0.002632938325
0.04775,-0.002653150819
0.04777083333,-0.002698212629
0.04779166667,-0.00270143454
0.0478125,-0.002760265488
0.04783333333,-0.00274281716
0.04785416667,-0.002684340347
0.047875,-0.002670292277
0.04789583333,-0.002657678444
0.04791666667,-0.002702549798
0.0479375,-0.002641301835
0.04795833333,-0.002685662359
0.04797916667,-0.00276224874
0.048,-0.002845853567
0.04802083333,-0.002796722576
0.04804166667,-0.002861750312
0.0480625,-0.002933287527
0.04808333333,-0.002902067266
0.04810416667,-0.002927554771
0.048125,-0.002952468814
0.04814583333,-0.00298309233
0.04816666667,-0.003092126688
0.0481875,-0.00309918006
0.04820833333,-0.003165973816
0.04822916667,-0.003091607243
0.04825,-0.003158127423
0.04827083333,-0.003206428606
0.04829166667,-0.003234377597
0.0483125,-0.003263180377
0.04833333333,-0.003367200959
0.04835416667,-0.003433659906
0.048375,-0.00358024193
0.04839583333,-0.003647263627
0.04841666667,-0.003772576107
0.0484375,-0.003783222521
0.04845833333,-0.003889635205
0.04847916667,-0.003908162471
0.0485,-0.003853808623
0.04852083333,-0.003854037961
0.04854166667,-0.003953475971
0.0485625,-0.003965581302
0.04858333333,-0.003950474784
0.04860416667,-0.003993044607
0.048625,-0.003922602627
0.04864583333,-0.003928577527
0.04866666667,-0.003918071277
0.0486875,-0.003909529187
0.04870833333,-0.003995073959
0.04872916667,-0.004035660066
0.04875,-0.003985068761
0.04877083333,-0.004077814054
0.04879166667,-0.00405865116
0.0488125,-0.004102034029
0.04883333333,-0.004099625163
0.04885416667,-0.004215150606
0.048875,-0.004171232693
0.04889583333,-0.004201094154
0.04891666667,-0.004194111563
0.0489375,-0.004267545417
0.04895833333,-0.004265020601
0.04897916667,-0.004336247221
0.049,-0.004331581295
0.04902083333,-0.004364090972
0.04904166667,-0.004328420386
0.0490625,-0.004365228582
0.04908333333,-0.004307179246
0.04910416667,-0.0042131925
0.049125,-0.004133009817
0.04914583333,-0.004113621544
0.04916666667,-0.004034183919
0.0491875,-0.003977766726
0.04920833333,-0.003957347944
0.04922916667,-0.003958499525
0.04925,-0.003960398957
0.04927083333,-0.003874533344
0.04929166667,-0.003919023089
0.0493125,-0.003936419263
0.04933333333,-0.003997457214
0.04935416667,-0.003920479212
0.049375,-0.003855714574
0.04939583333,-0.003816930344
0.04941666667,-0.003701071721
0.0494375,-0.003707901109
0.04945833333,-0.003725179471
0.04947916667,-0.003736002371
0.0495,-0.003829028457
0.04952083333,-0.003862142097
0.04954166667,-0.003920320421
0.0495625,-0.003911581822
0.04958333333,-0.004038397688
0.04960416667,-0.00402362505
0.049625,-0.004184740596
0.04964583333,-0.004129923414
0.04966666667,-0.004190516192
0.0496875,-0.004284193739
0.04970833333,-0.004325884394
0.04972916667,-0.004392748699
0.04975,-0.004423474893
0.04977083333,-0.00443433458
0.04979166667,-0.004394601565
0.0498125,-0.004415985662
0.04983333333,-0.004312571604
0.04985416667,-0.00425757328
0.049875,-0.004326786846
0.04989583333,-0.004239093512
0.04991666667,-0.004362691659
0.0499375,-0.004418716766
0.04995833333,-0.0044333525
0.04997916667,-0.00453661941
0.05,-0.004537007771
0.05002083333,-0.004471207503
0.05004166667,-0.004355296958
0.0500625,-0.004374612123
0.05008333333,-0.004316108767
0.05010416667,-0.004275613464
0.050125,-0.004252136219
0.05014583333,-0.004321023356
0.05016666667,-0.00421193894
0.0501875,-0.004156794865
0.05020833333,-0.004118978977
0.05022916667,-0.004178227857
0.05025,-0.004144772887
0.05027083333,-0.004189494997
0.05029166667,-0.004226658493
0.0503125,-0.004225038458
0.05033333333,-0.00409288751
0.05035416667,-0.003993787803
0.050375,-0.003918908536
0.05039583333,-0.003776525147
0.05041666667,-0.003705785843
0.0504375,-0.003632622771
0.05045833333,-0.003468564944
0.05047916667,-0.003319507698
0.0505,-0.003171506803
0.05052083333,-0.002974933246
0.05054166667,-0.002885205904
0.0505625,-0.002756520174
0.05058333333,-0.002602851018
0.05060416667,-0.002481626114
0.050625,-0.002420177683
0.05064583333,-0.002282149391
0.05066666667,-0.002176077105
0.0506875,-0.001896884991
0.05070833333,-0.001788828289
0.05072916667,-0.001618690323
0.05075,-0.001550250221
0.05077083333,-0.001442211913
0.05079166667,-0.001395985484
0.0508125,-0.001258901902
0.05083333333,-0.001214779448
0.05085416667,-0.0009782201378
0.050875,-0.0008626127965
0.05089583333,-0.0006711552851
0.05091666667,-0.0006167125539
0.0509375,-0.0003883911704
0.05095833333,-0.0002784249373
0.05097916667,-0.0001231928618
0.051,3.650227882e-05
0.05102083333,0.0003026757622
0.05104166667,0.000518345274
0.0510625,0.0006548666861
0.05108333333,0.0007842693594
0.05110416667,0.000963589293
0.051125,0.0009890886722
0.05114583333,0.001171456301
0.05116666667,0.001188082038
0.0511875,0.001215750235
0.05120833333,0.001301946002
0.05122916667,0.001213154057
0.05125,0.001355355838
0.05127083333,0.001448239549
0.05129166667,0.001453757752
0.0513125,0.001649663667
0.05133333333,0.001739078551
0.05135416667,0.001902154065
0.051375,0.001974972896
0.05139583333,0.002088627778
0.05141666667,0.002295766957
0.0514375,0.002401085803
0.05145833333,0.002548059681
0.05147916667,0.002649350557
0.0515,0.002835873747
0.05152083333,0.002911159303
0.05154166667,0.00303000235
0.0515625,0.003108515404
0.05158333333,0.00320931687
0.05160416667,0.003236044198
0.051625,0.003332748776
0.05164583333,0.003357583424
0.05166666667,0.003496143268
0.0516875,0.003577472875
0.05170833333,0.003751397831
0.05172916667,0.003810157534
0.05175,0.004039282445
0.05177083333,0.004123352002
0.05179166667,0.00425422797
0.0518125,0.004315839149
0.05183333333,0.004481011536
0.05185416667,0.004530043341
0.051875,0.004648806062
0.05189583333,0.004738523625
0.05191666667,0.004821618088
0.0519375,0.005021037534
0.05195833333,0.005095763132
0.05197916667,0.005113736726
0.052,0.0052553555
0.05202083333,0.005451611243
0.05204166667,0.005512884818
0.0520625,0.005522472318
0.05208333333,0.005644373596
0.05210416667,0.005608762149
0.052125,0.005586020648
0.05214583333,0.005739534739
0.05216666667,0.005899033044
0.0521875,0.005956045818
0.05220833333,0.005961053539
0.05222916667,0.006143541541
0.05225,0.00607366953
0.05227083333,0.006185824051
0.05229166667,0.006133360323
0.0523125,0.006223347504
0.05233333333,0.006179657299
0.05235416667,0.006225209218
0.052375,0.006277670618
0.05239583333,0.00633736141
0.05241666667,0.006331807468
0.0524375,0.006366371177
0.05245833333,0.006355948281
0.05247916667,0.00656495709
0.0525,0.006534745451
0.05252083333,0.006676480174
0.05254166667,0.006702443585
0.0525625,0.006811025087
0.05258333333,0.006934913807
0.05260416667,0.007006560918
0.052625,0.007100625895
0.05264583333,0.007278449368
0.05266666667,0.007335427683
0.0526875,0.00740640657
0.05270833333,0.007472667843
0.05272916667,0.007572766859
0.05275,0.007686219644
0.05277083333,0.007835644297
0.05279166667,0.007862908766
0.0528125,0.007941051386
0.05283333333,0.008111484349
0.05285416667,0.0082212165
0.052875,0.008415495045
0.05289583333,0.00855218526
0.05291666667,0.008604708128
0.0529375,0.008684571832
0.05295833333,0.00880580768
0.05297916667,0.008818366565
0.053,0.008958357386
0.05302083333,0.008996752091
0.05304166667,0.009082912467
0.0530625,0.009231561795
0.05308333333,0.009384945966
0.05310416667,0.009521791711
0.053125,0.009725878015
0.05314583333,0.009907099418
0.05316666667,0.01004422642
0.0531875,0.01026338153
0.05320833333,0.01034763083
0.05322916667,0.01044312958
0.05325,0.01060032006
0.05327083333,0.01072387956
0.05329166667,0.01091143116
0.0533125,0.01098508108
0.05333333333,0.01119010523
0.05335416667,0.01122483704
0.053375,0.01148164738
0.05339583333,0.01160527021
0.05341666667,0.01179523952
0.0534375,0.01189962868
0.05345833333,0.01205380168
0.05347916667,0.01230959129
0.0535,0.01245399006
0.05352083333,0.01270743832
0.05354166667,0.01281109732
0.0535625,0.01298453752
0.05358333333,0.01311744004
0.05360416667,0.01325410046
0.053625,0.01332288887
0.05364583333,0.01329400577
0.05366666667,0.01324175205
0.0536875,0.01314243767
0.05370833333,0.01305709686
0.05372916667,0.01296974532
0.05375,0.0129009746
0.05377083333,0.01293025166
0.05379166667,0.01285674237
0.0538125,0.01288673561
0.05383333333,0.01280150283
0.05385416667,0.01282660849
0.053875,0.01276648045
0.05389583333,0.01281631179
0.05391666667,0.01284391526
0.0539375,0.01273243316
0.05395833333,0.01269331295
0.05397916667,0.01267949678
0.054,0.01267124154
0.05402083333,0.01271370519
0.05404166667,0.01275177393
0.0540625,0.01277085021
0.05408333333,0.01280820183
0.05410416667,0.01285787486
0.054125,0.0129869068
0.05414583333,0.01300805528
0.05416666667,0.01307335217
0.0541875,0.01315579098
0.05420833333,0.01318533439
0.05422916667,0.0132276006
0.05425,0.01320046373
0.05427083333,0.01318549458
0.05429166667,0.01307840459
0.0543125,0.01300324779
0.05433333333,0.01298789866
0.05435416667,0.01283771638
0.054375,0.01282480173
0.05439583333,0.01272514556
0.05441666667,0.01272369269
0.0544375,0.01269744989
0.05445833333,0.01268638857
0.05447916667,0.01270755567
0.0545,0.01275088266
0.05452083333,0.01277151518
0.05454166667,0.0129046822
0.0545625,0.01288285758
0.05458333333,0.0128547363
0.05460416667,0.01282243244
0.054625,0.01281537488
0.05464583333,0.01276325714
0.05466666667,0.01268959977
0.0546875,0.0126931984
0.05470833333,0.01265274547
0.05472916667,0.0126742404
0.05475,0.01270994172
0.05477083333,0.01280379295
0.05479166667,0.01286831405
0.0548125,0.01289181877
0.05483333333,0.01291353721
0.05485416667,0.01289753336
0.054875,0.01286142599
0.05489583333,0.01290269755
0.05491666667,0.01289104111
0.0549375,0.01293442957
0.05495833333,0.01295622811
0.05497916667,0.01294039842
0.055,0.0129192723
0.05502083333,0.01294258516
0.05504166667,0.01290368661
0.0550625,0.01300424431
0.05508333333,0.01298698597
0.05510416667,0.01304594148
0.055125,0.0130633954
0.05514583333,0.01302986592
0.05516666667,0.01309122145
0.0551875,0.01314404514
0.05520833333,0.01317079086
0.05522916667,0.01321027894
0.05525,0.01322596613
0.05527083333,0.01327332575
0.05529166667,0.01326235104
0.0553125,0.0133304121
0.05533333333,0.0133281555
0.05535416667,0.01332159247
0.055375,0.0133344857
0.05539583333,0.01334772445
0.05541666667,0.01339308545
0.0554375,0.01346592326
0.05545833333,0.01345208474
0.05547916667,0.01357669104
0.0555,0.01357055455
0.05552083333,0.01364899613
0.05554166667,0.01370318793
0.0555625,0.01370034087
0.05558333333,0.01385961752
0.05560416667,0.01384480018
0.055625,0.01396760158
0.05564583333,0.01393766236
0.05566666667,0.01406783145
0.0556875,0.01407734398
0.05570833333,0.01411798876
0.05572916667,0.01418976765
0.05575,0.0142734088
0.05577083333,0.01429837197
0.05579166667,0.01429894194
0.0558125,0.01435513142
0.05583333333,0.01443909202
0.05585416667,0.01438737754
0.055875,0.01436135266
0.05589583333,0.01428943779
0.05591666667,0.01428549644
0.0559375,0.01430704724
0.05595833333,0.01428778376
0.05597916667,0.01438739803
0.056,0.0144201545
0.05602083333,0.01439607609
0.05604166667,0.01447171532
0.0560625,0.01444439497
0.05608333333,0.0143825002
0.05610416667,0.01444670279
0.056125,0.01443968248
0.05614583333,0.01448944025
0.05616666667,0.01451308373
0.0561875,0.01441818196
0.05620833333,0.01438120101
0.05622916667,0.01439455152
0.05625,0.01427553874
0.05627083333,0.01425192226
0.05629166667,0.01419670973
0.0563125,0.01416069735
0.05633333333,0.01409837883
0.05635416667,0.01408627164
0.056375,0.01403786056
0.05639583333,0.01402987447
0.05641666667,0.01402616408
0.0564375,0.01406468451
0.05645833333,0.01404122636
0.05647916667,0.01407058723
0.0565,0.01408822183
0.05652083333,0.01408057567
0.05654166667,0.01408027951
0.0565625,0.01398703828
0.05658333333,0.01394561306
0.05660416667,0.01399754919
0.056625,0.01397497859
0.05664583333,0.01401078701
0.05666666667,0.01398315094
0.0566875,0.01398503873
0.05670833333,0.01404564176
0.05672916667,0.01409456506
0.05675,0.01409456506
0.05677083333,0.0141120553
0.05679166667,0.01417454425
0.0568125,0.01413920056
0.05683333333,0.01417234354
0.05685416667,0.01407624129
0.056875,0.01416368876
0.05689583333,0.01413616538
0.05691666667,0.01423796453
0.0569375,0.01426191069
0.05695833333,0.01440052688
0.05697916667,0.01446228847
0.057,0.01455942448
0.05702083333,0.01462570298
0.05704166667,0.01466651354
0.0570625,0.01470893994
0.05708333333,0.01473853551
0.05710416667,0.01473345328
0.057125,0.01485743001
0.05714583333,0.014807011
0.05716666667,0.01491804514
0.0571875,0.01498231199
0.05720833333,0.01498629339
0.05722916667,0.01501067542
0.05725,0.01492038369
0.05727083333,0.01479136478
0.05729166667,0.01467704866
0.0573125,0.0145790996
0.05733333333,0.01448298711
0.05735416667,0.01438126154
0.057375,0.01425115578
0.05739583333,0.01421571616
0.05741666667,0.01416478679
0.0574375,0.01420541108
0.05745833333,0.01417308301
0.05747916667,0.01419110596
0.0575,0.01421939861
0.05752083333,0.01424284745
0.05754166667,0.01412779093
0.0575625,0.01415873878
0.05758333333,0.0140242707
0.05760416667,0.0140788462
0.057625,0.01398945879
0.05764583333,0.0139711136
0.05766666667,0.01388832647
0.0576875,0.01386955567
0.05770833333,0.01379042119
0.05772916667,0.01381007396
0.05775,0.01369567961
0.05777083333,0.01365448255
0.05779166667,0.01356099267
0.0578125,0.01356692147
0.05783333333,0.01352652721
0.05785416667,0.01352399774
0.057875,0.01346542593
0.05789583333,0.01340801362
0.05791666667,0.01334760897
0.0579375,0.01328578964
0.05795833333,0.01322529279
0.05797916667,0.01317742467
0.058,0.01315977611
0.05802083333,0.01308055595
0.05804166667,0.01307707932
0.0580625,0.01305455901
0.05808333333,0.01303214859
0.05810416667,0.01305301674
0.058125,0.01302974392
0.05814583333,0.01302853134
0.05816666667,0.01308956742
0.0581875,0.0130906608
0.05820833333,0.01322699897
0.05822916667,0.01309180539
0.05825,0.01313619968
0.05827083333,0.01312812511
0.05829166667,0.01311465073
0.0583125,0.01318300702
0.05833333333,0.01324735302
0.05835416667,0.01328488812
0.058375,0.01338842418
0.05839583333,0.01341201365
0.05841666667,0.01343121473
0.0584375,0.01347314194
0.05845833333,0.01355167106
0.05847916667,0.01356850937
0.0585,0.01357828174
0.05852083333,0.0136194462
0.05854166667,0.01366358623
0.0585625,0.01370868087
0.05858333333,0.0137767829
0.05860416667,0.01378907729
0.058625,0.01381032728
0.05864583333,0.0137751326
0.05866666667,0.01379755791
0.0586875,0.01379366778
0.05870833333,0.01375472173
0.05872916667,0.01369527262
0.05875,0.01369965263
0.05877083333,0.01370760892
0.05879166667,0.01361181587
0.0588125,0.01363625564
0.05883333333,0.01352780312
0.05885416667,0.01359304041
0.058875,0.0135039743
0.05889583333,0.01352116372
0.05891666667,0.01341752894
0.0589375,0.01336366218
0.05895833333,0.01326388679
0.05897916667,0.01322133094
0.059,0.01316161547
0.05902083333,0.01317028422
0.05904166667,0.01317574643
0.0590625,0.01309447084
0.05908333333,0.01296758745
0.05910416667,0.01289107557
0.059125,0.01285673399
0.05914583333,0.01285608951
0.05916666667,0.01274585817
0.0591875,0.01270086411
0.05920833333,0.01269237138
0.05922916667,0.01260947622
0.05925,0.01261830609
0.05927083333,0.01261310373
0.05929166667,0.01257895119
0.0593125,0.01261962205
0.05933333333,0.0125878267
0.05935416667,0.01260688622
0.059375,0.0125155244
0.05939583333,0.0124619836
0.05941666667,0.01243892871
0.0594375,0.0123666767
0.05945833333,0.01231314242
0.05947916667,0.01223975793
0.0595,0.01219728123
0.05952083333,0.01210106164
0.05954166667,0.01212031581
0.0595625,0.01197019033
0.05958333333,0.01201728079
0.05960416667,0.01188877504
0.059625,0.01179721393
0.05964583333,0.01170713548
0.05966666667,0.01164447982
0.0596875,0.0115036862
0.05970833333,0.01144429296
0.05972916667,0.01126577612
0.05975,0.01122850738
0.05977083333,0.01116720401
0.05979166667,0.01106753759
0.0598125,0.01107679121
0.05983333333,0.01102203503
0.05985416667,0.01099873055
0.059875,0.0110069681
0.05989583333,0.01096539479
0.05991666667,0.01099371165
0.0599375,0.01091809385
0.05995833333,0.01092666388
0.05997916667,0.01087230258
0.06,0.01079774555
0.06002083333,0.01076036971
0.06004166667,0.0107043637
0.0600625,0.0107218856
0.06008333333,0.01057404466
0.06010416667,0.01052552275
0.060125,0.01048345864
0.06014583333,0.01040968951
0.06016666667,0.01032606419
0.0601875,0.01016745716
0.06020833333,0.01004249509
0.06022916667,0.009954964742
0.06025,0.009755737148
0.06027083333,0.009651796892
0.06029166667,0.009499593638
0.0603125,0.009361900389
0.06033333333,0.009201851673
0.06035416667,0.008976018056
0.060375,0.00883296784
0.06039583333,0.008718910627
0.06041666667,0.008554954082
0.0604375,0.008559296839
0.06045833333,0.008415705524
0.06047916667,0.008291287348
0.0605,0.008158889599
0.06052083333,0.00797841046
0.06054166667,0.007847946137
0.0605625,0.007666146848
0.06058333333,0.007537782658
0.06060416667,0.0073273913
0.060625,0.007185060531
0.06064583333,0.007018124219
0.06066666667,0.007015936542
0.0606875,0.006910145748
0.06070833333,0.006939921062
0.06072916667,0.006858090404
0.06075,0.006811107043
0.06077083333,0.006715740077
0.06079166667,0.006770068314
0.0608125,0.00675601
0.06083333333,0.006763152778
0.06085416667,0.006708651781
0.060875,0.006713329814
0.06089583333,0.006590589881
0.06091666667,0.006620653439
0.0609375,0.006491664797
0.06095833333,0.006399042439
0.06097916667,0.006298317574
0.061,0.006153512746
0.06102083333,0.0061010723
0.06104166667,0.006017351989
0.0610625,0.005935798399
0.06108333333,0.005708737299
0.06110416667,0.005700340029
0.061125,0.005583510734
0.06114583333,0.005376627203
0.06116666667,0.005421290174
0.0611875,0.005212038755
0.06120833333,0.005154976621
0.06122916667,0.005162443034
0.06125,0.00502266502
0.06127083333,0.005054652225
0.06129166667,0.004849327262
0.0613125,0.004840994254
0.06133333333,0.004686855245
0.06135416667,0.004632553551
0.061375,0.004585750401
0.06139583333,0.004568604287
0.06141666667,0.004469985142
0.0614375,0.004492198583
0.06145833333,0.004391595256
0.06147916667,0.004426802043
0.0615,0.004357533529
0.06152083333,0.004318913445
0.06154166667,0.004174284637
0.0615625,0.004101596773
0.06158333333,0.004040332045
0.06160416667,0.003956073429
0.061625,0.003878376679
0.06164583333,0.00378255127
0.06166666667,0.003722745692
0.0616875,0.003493932076
0.06170833333,0.003479066538
0.06172916667,0.003303257748
0.06175,0.003192988224
0.06177083333,0.003061703173
0.06179166667,0.002998214448
0.0618125,0.002883782377
0.06183333333,0.002832644153
0.06185416667,0.002720158547
0.061875,0.00272650714
0.06189583333,0.002532892162
0.06191666667,0.002515376778
0.0619375,0.002364487387
0.06195833333,0.002269845922
0.06197916667,0.002253132174
0.062,0.002102297498
0.06202083333,0.00216692267
0.06204166667,0.002069717506
0.0620625,0.002047809772
0.06208333333,0.001920672599
0.06210416667,0.001850225963
0.062125,0.001813291921
0.06214583333,0.001670970931
0.06216666667,0.001723015215
0.0621875,0.001628563041
0.06220833333,0.001495897304
0.06222916667,0.001566214371
0.06225,0.001400760259
0.06227083333,0.001362177543
0.06229166667,0.001307038474
0.0623125,0.001265615923
0.06233333333,0.001205808134
0.06235416667,0.001153648947
0.062375,0.001007946674
0.06239583333,0.0009982691845
0.06241666667,0.000886713271
0.0624375,0.0009083506302
0.06245833333,0.0008109652554
0.06247916667,0.0007115592598
0.0625,0.0005751863937
0.06252083333,0.0005850335001
0.06254166667,0.000500196591
0.0625625,0.0006154940929
0.06258333333,0.0005577235715
0.06260416667,0.0006025087205
0.062625,0.0006091370014
0.06264583333,0.0004949430586
0.06266666667,0.0004085651017
0.0626875,0.0002633839904
0.06270833333,0.0001456963364
0.06272916667,9.166142263e-05
0.06275,7.794253179e-06
0.06277083333,-6.785726873e-05
0.06279166667,-0.0001349277009
0.0628125,-0.0001728021598
0.06283333333,-0.0002083137224
0.06285416667,-0.0003268260916
0.062875,-0.0003785682784
0.06289583333,-0.0004778253206
0.06291666667,-0.0005695907166
0.0629375,-0.0007755614351
0.06295833333,-0.0008352125296
0.06297916667,-0.001027240884
0.063,-0.001034407411
0.06302083333,-0.001197964884
0.06304166667,-0.001291539636
0.0630625,-0.001397746033
0.06308333333,-0.001605331781
0.06310416667,-0.001723189838
0.063125,-0.001818429562
0.06314583333,-0.001958593493
0.06316666667,-0.00203334773
0.0631875,-0.002219202695
0.06320833333,-0.002281146124
0.06322916667,-0.002446211642
0.06325,-0.002529145684
0.06327083333,-0.002589426469
0.06329166667,-0.00272763148
0.0633125,-0.002782165073
0.06333333333,-0.002834908199
0.06335416667,-0.002934938297
0.063375,-0.003085199045
0.06339583333,-0.003164236667
0.06341666667,-0.003334122477
0.0634375,-0.003481986001
0.06345833333,-0.003655010136
0.06347916667,-0.003768294584
0.0635,-0.003874740098
0.06352083333,-0.00403123023
0.06354166667,-0.004159005359
0.0635625,-0.004220033996
0.06358333333,-0.004338501021
0.06360416667,-0.00437138509
0.063625,-0.004486993887
0.06364583333,-0.004513145424
0.06366666667,-0.004578898661
0.0636875,-0.004653309472
0.06370833333,-0.004683339968
0.06372916667,-0.004687322769
0.06375,-0.004741742276
0.06377083333,-0.004708863795
0.06379166667,-0.00474873744
0.0638125,-0.004743662197
0.06383333333,-0.004765872378
0.06385416667,-0.004805542063
0.063875,-0.00485169515
0.06389583333,-0.004818673711
0.06391666667,-0.004833534826
0.0639375,-0.004873244092
0.06395833333,-0.00486870762
0.06397916667,-0.004880791996
0.064,-0.004845929332
0.06402083333,-0.004863898735
0.06404166667,-0.004910738673
0.0640625,-0.005060578231
0.06408333333,-0.005137799773
0.06410416667,-0.005191415083
0.064125,-0.005280257203
0.06414583333,-0.005242054351
0.06416666667,-0.005226823501
0.0641875,-0.005266373511
0.06420833333,-0.005246019922
0.06422916667,-0.005300554913
0.06425,-0.00534680672
0.06427083333,-0.005455171224
0.06429166667,-0.00546993874
0.0643125,-0.005532446783
0.06433333333,-0.005561453756
0.06435416667,-0.005639230367
0.064375,-0.005598361604
0.06439583333,-0.0055670687
0.06441666667,-0.005504398141
0.0644375,-0.005431015976
0.06445833333,-0.005472110584
0.06447916667,-0.005408602767
0.0645,-0.005489428528
0.06452083333,-0.005487569142
0.06454166667,-0.005496916361
0.0645625,-0.00552405091
0.06458333333,-0.005542552564
0.06460416667,-0.00559367938
0.064625,-0.005577087402
0.06464583333,-0.005598106422
0.06466666667,-0.005668058991
0.0646875,-0.00567575125
0.06470833333,-0.005786831025
0.06472916667,-0.005804738961
0.06475,-0.005948399194
0.06477083333,-0.006052310579
0.06479166667,-0.006119862199
0.0648125,-0.006208700594
0.06483333333,-0.006232781801
0.06485416667,-0.006301675458
0.064875,-0.006446001586
0.06489583333,-0.006466824561
0.06491666667,-0.006629750133
0.0649375,-0.0066491412
0.06495833333,-0.006751424633
0.06497916667,-0.006830879953
0.065,-0.006898604333
0.06502083333,-0.006909327582
0.06504166667,-0.0070450278
0.0650625,-0.007059846539
0.06508333333,-0.007139176596
0.06510416667,-0.007146472577
0.065125,-0.007138825022
0.06514583333,-0.007182533387
0.06516666667,-0.007185228635
0.0651875,-0.007196163759
0.06520833333,-0.007205222733
0.06522916667,-0.007256798912
0.06525,-0.00733122509
0.06527083333,-0.007417540997
0.06529166667,-0.007416675333
0.0653125,-0.007508176379
0.06533333333,-0.007514264435
0.06535416667,-0.007543335203
0.065375,-0.007604997139
0.06539583333,-0.007698116358
0.06541666667,-0.007666956168
0.0654375,-0.00774233276
0.06545833333,-0.007691272534
0.06547916667,-0.007809454575
0.0655,-0.007795425132
0.06552083333,-0.007757897023
0.06554166667,-0.007809461094
0.0655625,-0.007840676233
0.06558333333,-0.00792905502
0.06560416667,-0.008019358851
0.065625,-0.008038028143
0.06564583333,-0.008083827794
0.06566666667,-0.008112273179
0.0656875,-0.008180770092
0.06570833333,-0.008172613569
0.06572916667,-0.008231257088
0.06575,-0.008231187239
0.06577083333,-0.008205913939
0.06579166667,-0.008277872577
0.0658125,-0.008226015605
0.06583333333,-0.008249755017
0.06585416667,-0.008289216086
0.065875,-0.008354509249
0.06589583333,-0.008475692011
0.06591666667,-0.008482379839
0.0659375,-0.008537903428
0.06595833333,-0.0085617695
0.06597916667,-0.008515898138
0.066,-0.008530832827
0.06602083333,-0.008456643671
0.06604166667,-0.00832763128
0.0660625,-0.008216853254
0.06608333333,-0.008141838014
0.06610416667,-0.008003789
0.066125,-0.007925353013
0.06614583333,-0.007824871689
0.06616666667,-0.007719811052
0.0661875,-0.007664455101
0.06620833333,-0.007634100039
0.06622916667,-0.007590943947
0.06625,-0.007588719949
0.06627083333,-0.007587447297
0.06629166667,-0.007570919581
0.0663125,-0.007596018724
0.06633333333,-0.00760474382
0.06635416667,-0.007646388374
0.066375,-0.0076218131
0.06639583333,-0.007600654848
0.06641666667,-0.007693266496
0.0664375,-0.007693404332
0.06645833333,-0.007725955918
0.06647916667,-0.007802372798
0.0665,-0.007789985277
0.06652083333,-0.00788651593
0.06654166667,-0.007854444906
0.0665625,-0.007901689969
0.06658333333,-0.007943312638
0.06660416667,-0.008023609407
0.066625,-0.008048604243
0.06664583333,-0.008075808175
0.06666666667,-0.008025099523
0.0666875,-0.0080269631
0.06670833333,-0.008012040518
0.06672916667,-0.007986424491
0.06675,-0.007928892039
0.06677083333,-0.007841478102
0.06679166667,-0.007761620916
0.0668125,-0.007696784567
0.06683333333,-0.007564258762
0.06685416667,-0.007557443809
0.066875,-0.007543206215
0.06689583333,-0.007503471803
0.06691666667,-0.007550726179
0.0669375,-0.007558066398
0.06695833333,-0.007628685329
0.06697916667,-0.007563769817
0.067,-0.007580898702
0.06702083333,-0.007646917831
0.06704166667,-0.00771209877
0.0670625,-0.007649263833
0.06708333333,-0.007770322263
0.06710416667,-0.007698145695
0.067125,-0.007704081479
0.06714583333,-0.007797757164
0.06716666667,-0.007747577969
0.0671875,-0.007755511906
0.06720833333,-0.007792657241
0.06722916667,-0.007782481611
0.06725,-0.007863441482
0.06727083333,-0.007759933826
0.06729166667,-0.00778238941
0.0673125,-0.007706649136
0.06733333333,-0.007716354448
0.06735416667,-0.007738885004
0.067375,-0.007703300565
0.06739583333,-0.007708894089
0.06741666667,-0.00766041223
0.0674375,-0.007642715704
0.06745833333,-0.007609171793
0.06747916667,-0.007594001945
0.0675,-0.007642390206
0.06752083333,-0.007712032646
0.06754166667,-0.007688654587
0.0675625,-0.007753361017
0.06758333333,-0.007772870362
0.06760416667,-0.007880244404
0.067625,-0.007949560881
0.06764583333,-0.007968243212
0.06766666667,-0.008068460971
0.0676875,-0.008085662499
0.06770833333,-0.008097290993
0.06772916667,-0.008207350038
0.06775,-0.008155595511
0.06777083333,-0.008215568028
0.06779166667,-0.00818399433
0.0678125,-0.008160917088
0.06783333333,-0.00813489873
0.06785416667,-0.008148096502
0.067875,-0.008173259906
0.06789583333,-0.008223208599
0.06791666667,-0.008125696331
0.0679375,-0.0082430318
0.06795833333,-0.008189022541
0.06797916667,-0.008235062473
0.068,-0.008349287324
0.06802083333,-0.008311199956
0.06804166667,-0.008259646595
0.0680625,-0.008280480281
0.06808333333,-0.008232845925
0.06810416667,-0.008194492199
0.068125,-0.00816346705
0.06814583333,-0.008160311729
0.06816666667,-0.008163120598
0.0681875,-0.008113488555
0.06820833333,-0.00813188497
0.06822916667,-0.008146682754
0.06825,-0.008213342167
0.06827083333,-0.00831034407
0.06829166667,-0.008455688134
0.0683125,-0.00852408912
0.06833333333,-0.008688849397
0.06835416667,-0.008648775518
0.068375,-0.008695504628
0.06839583333,-0.008780946024
0.06841666667,-0.008842796087
0.0684375,-0.008847305551
0.06845833333,-0.008871093392
0.06847916667,-0.008828179911
0.0685,-0.008811189793
0.06852083333,-0.008813769557
0.06854166667,-0.008771385998
0.0685625,-0.008765590377
0.06858333333,-0.008784335107
0.06860416667,-0.008734717034
0.068625,-0.008692025207
0.06864583333,-0.008692892268
0.06866666667,-0.008621608838
0.0686875,-0.008641323075
0.06870833333,-0.008512435481
0.06872916667,-0.008520843461
0.06875,-0.008452902548
0.06877083333,-0.00842805393
0.06879166667,-0.008325465024
0.0688125,-0.008315728977
0.06883333333,-0.008289853111
0.06885416667,-0.008149187081
0.068875,-0.008121832274
0.06889583333,-0.008109908551
0.06891666667,-0.008105447516
0.0689375,-0.00816416461
0.06895833333,-0.008154613897
0.06897916667,-0.008235918358
0.069,-0.008213966154
0.06902083333,-0.008273852989
0.06904166667,-0.008303346112
0.0690625,-0.008231608197
0.06908333333,-0.008249793202
0.06910416667,-0.008251908235
0.069125,-0.008261142299
0.06914583333,-0.008323432878
0.06916666667,-0.008291362785
0.0691875,-0.008224635385
0.06920833333,-0.008222146891
0.06922916667,-0.008123781532
0.06925,-0.008064785041
0.06927083333,-0.007933545858
0.06929166667,-0.007967275567
0.0693125,-0.007825951092
0.06933333333,-0.007781606168
0.06935416667,-0.007635582238
0.069375,-0.007567400113
0.06939583333,-0.007420123089
0.06941666667,-0.007317559328
0.0694375,-0.007197199389
0.06945833333,-0.007168551907
0.06947916667,-0.00712969387
0.0695,-0.007040254306
0.06952083333,-0.006999979261
0.06954166667,-0.006983286701
0.0695625,-0.006860996597
0.06958333333,-0.006794103887
0.06960416667,-0.006662268657
0.069625,-0.006624123082
0.06964583333,-0.00644125836
0.06966666667,-0.006374575663
0.0696875,-0.006172558293
0.06970833333,-0.006097073667
0.06972916667,-0.005998942535
0.06975,-0.005826342385
0.06977083333,-0.00579109136
0.06979166667,-0.005658999085
0.0698125,-0.005666028708
0.06983333333,-0.005511115305
0.06985416667,-0.005479821935
0.069875,-0.005392376333
0.06989583333,-0.005267121363
0.06991666667,-0.005249409005
0.0699375,-0.005074895453
0.06995833333,-0.004976847209
0.06997916667,-0.004856253974
0.07,-0.004775406327
0.07002083333,-0.004697960336
0.07004166667,-0.004658791702
0.0700625,-0.004567069467
0.07008333333,-0.004506105557
0.07010416667,-0.004442348145
0.070125,-0.004380482715
0.07014583333,-0.004312359262
0.07016666667,-0.00420756219
0.0701875,-0.004150229972
0.07020833333,-0.004004052375
0.07022916667,-0.003896855982
0.07025,-0.003780503757
0.07027083333,-0.003727953183
0.07029166667,-0.003613890149
0.0703125,-0.003536477685
0.07033333333,-0.003417360131
0.07035416667,-0.003334490117
0.070375,-0.003221928375
0.07039583333,-0.003145574359
0.07041666667,-0.003044600133
0.0704375,-0.002933694981
0.07045833333,-0.002765866229
0.07047916667,-0.00258851354
0.0705,-0.002444811165
0.07052083333,-0.002284498885
0.07054166667,-0.002215138869
0.0705625,-0.002127638785
0.07058333333,-0.002043202985
0.07060416667,-0.001898637973
0.070625,-0.001706710085
0.07064583333,-0.001527630957
0.07066666667,-0.001407820499
0.0706875,-0.001241778838
0.07070833333,-0.001130236196
0.07072916667,-0.0009682769305
0.07075,-0.0008692572592
0.07077083333,-0.0006323666894
0.07079166667,-0.00054955628
0.0708125,-0.0003538227757
0.07083333333,-0.0002715055598
0.07085416667,-0.0001232463692
0.070875,5.926412996e-07
0.07089583333,0.0001066885743
0.07091666667,0.0001630108745
0.0709375,0.0002973465598
0.07095833333,0.0003525774518
0.07097916667,0.000472172891
0.071,0.0005646764766
0.07102083333,0.0006090629031
0.07104166667,0.0007989220321
0.0710625,0.0008275223081
0.07108333333,0.00104953663
0.07110416667,0.00105439825
0.071125,0.001270372537
0.07114583333,0.001328924322
0.07116666667,0.001462914282
0.0711875,0.00149023463
0.07120833333,0.001607856946
0.07122916667,0.001628427766
0.07125,0.001669972902
0.07127083333,0.001709417789
0.07129166667,0.001779891201
0.0713125,0.001792101073
0.07133333333,0.001923483098
0.07135416667,0.001943465904
0.071375,0.002103978069
0.07139583333,0.002162581543
0.07141666667,0.002252985025
0.0714375,0.002236147877
0.07145833333,0.002315789228
0.07147916667,0.002293428173
0.0715,0.002297374187
0.07152083333,0.00229465263
0.07154166667,0.002308134688
0.0715625,0.002341760555
0.07158333333,0.002337774262
0.07160416667,0.00235482119
0.071625,0.002406197367
0.07164583333,0.002476444002
0.07166666667,0.002442564582
0.0716875,0.002530741971
0.07170833333,0.002534552012
0.07172916667,0.00258140103
0.07175,0.002602735767
0.07177083333,0.002696126001
0.07179166667,0.002772257896
0.0718125,0.00285312999
0.07183333333,0.002821312053
0.07185416667,0.002878475003
0.071875,0.002847752068
0.07189583333,0.002872634912
0.07191666667,0.002778338036
0.0719375,0.002818898531
0.07195833333,0.002757925075
0.07197916667,0.00282940804
0.072,0.002816719236
0.07202083333,0.002859026659
0.07204166667,0.002895703772
0.0720625,0.002851849655
0.07208333333,0.002903378103
0.07210416667,0.00276636309
0.072125,0.00286682602
0.07214583333,0.002898843959
0.07216666667,0.002945232438
0.0721875,0.002936578123
0.07220833333,0.003019269556
0.07222916667,0.003130451543
0.07225,0.003228779649
0.07227083333,0.003248992376
0.07229166667,0.003274170449
0.0723125,0.003282804508
0.07233333333,0.003393305931
0.07235416667,0.003421633039
0.072375,0.003537341487
0.07239583333,0.003487080801
0.07241666667,0.003604391823
0.0724375,0.003604265163
0.07245833333,0.003661911935
0.07247916667,0.003735929495
0.0725,0.003800004721
0.07252083333,0.003869377775
0.07254166667,0.003965061158
0.0725625,0.003962522373
0.07258333333,0.004000432789
0.07260416667,0.003980438691
0.072625,0.004002191592
0.07264583333,0.004029805306
0.07266666667,0.004192501772
0.0726875,0.004254976753
0.07270833333,0.004356381018
0.07272916667,0.00442734547
0.07275,0.004451815505
0.07277083333,0.004500266165
0.07279166667,0.004520911258
0.0728125,0.004611936398
0.07283333333,0.004627643153
0.07285416667,0.004693537485
0.072875,0.004765494261
0.07289583333,0.004810518119
0.07291666667,0.004893299192
0.0729375,0.004997905809
0.07295833333,0.005055114161
0.07297916667,0.005147453398
0.073,0.005169827025
0.07302083333,0.005206615198
0.07304166667,0.005162328482
0.0730625,0.005205695517
0.07308333333,0.005211577285
0.07310416667,0.00523460377
0.073125,0.005228901748
0.07314583333,0.005284165032
0.07316666667,0.005306808278
0.0731875,0.00535939401
0.07320833333,0.005363124423
0.07322916667,0.0053691254
0.07325,0.005400297698
0.07327083333,0.005483322311
0.07329166667,0.005559962243
0.0733125,0.0056163962
0.07333333333,0.005657244008
0.07335416667,0.005747606512
0.073375,0.005852452014
0.07339583333,0.005895352922
0.07341666667,0.005961722694
0.0734375,0.006027946714
0.07345833333,0.006061811466
0.07347916667,0.006110494025
0.0735,0.006131334696
0.07352083333,0.006128878798
0.07354166667,0.006136293523
0.0735625,0.006092794705
0.07358333333,0.006113718729
0.07360416667,0.006065823603
0.073625,0.006070911419
0.07364583333,0.006052358076
0.07366666667,0.006061390042
0.0736875,0.006067851558
0.07370833333,0.006051840726
0.07372916667,0.006038945634
0.07375,0.006014767103
0.07377083333,0.005950920749
0.07379166667,0.005942383781
0.0738125,0.00589638669
0.07383333333,0.005891792476
0.07385416667,0.005853978917
0.073875,0.005917869974
0.07389583333,0.005887942854
0.07391666667,0.005876767449
0.0739375,0.005821520928
0.07395833333,0.005774685182
0.07397916667,0.005710822996
0.074,0.005771541502
0.07402083333,0.005747965537
0.07404166667,0.005794249009
0.0740625,0.005818725098
0.07408333333,0.005812355783
0.07410416667,0.005871433299
0.074125,0.005880902056
0.07414583333,0.005898620002
0.07416666667,0.005929484498
0.0741875,0.005942028016
0.07420833333,0.006024964619
0.07422916667,0.006059657317
0.07425,0.006072684191
0.07427083333,0.006129415706
0.07429166667,0.006155136973
0.0743125,0.006245866418
0.07433333333,0.006269872189
0.07435416667,0.006309232209
0.074375,0.006311210338
0.07439583333,0.006381052546
0.07441666667,0.006367094815
0.0744375,0.006415191106
0.07445833333,0.006388541777
0.07447916667,0.006481001619
0.0745,0.006517455447
0.07452083333,0.00656831637
0.07454166667,0.00663004024
0.0745625,0.006679140497
0.07458333333,0.006730319932
0.07460416667,0.006767651532
0.074625,0.006747968495
0.07464583333,0.006777655333
0.07466666667,0.006801804993
0.0746875,0.006868198514
0.07470833333,0.006901802495
0.07472916667,0.006888784468
0.07475,0.006911464036
0.07477083333,0.006968653761
0.07479166667,0.007021405734
0.0748125,0.007005058695
0.07483333333,0.007060446776
0.07485416667,0.006988599896
0.074875,0.007053402252
0.07489583333,0.007036578376
0.07491666667,0.00705843186
0.0749375,0.007132067345
0.07495833333,0.007173417602
0.07497916667,0.007292484399
0.075,0.00735470932
0.07502083333,0.007418867666
0.07504166667,0.007451198995
0.0750625,0.007473336067
0.07508333333,0.007540345658
0.07510416667,0.007538691163
0.075125,0.007593047339
0.07514583333,0.007619016804
0.07516666667,0.007636639755
0.0751875,0.00773304468
0.07520833333,0.007804932073
0.07522916667,0.007891579531
0.07525,0.007927471772
0.07527083333,0.007958553731
0.07529166667,0.007992431521
0.0753125,0.007972414605
0.07533333333,0.008041919209
0.07535416667,0.008061188273
0.075375,0.008057068102
0.07539583333,0.008070517331
0.07541666667,0.008111743256
0.0754375,0.008142541163
0.07545833333,0.008128151298
0.07547916667,0.008182118647
0.0755,0.008161119185
0.07552083333,0.008165526204
0.07554166667,0.008133045398
0.0755625,0.008154184557
0.07558333333,0.00818885304
0.07560416667,0.008269097656
0.075625,0.008254221641
0.07564583333,0.00834017247
0.07566666667,0.008384030312
0.0756875,0.0084860567
0.07570833333,0.008515895344
0.07572916667,0.008663562126
0.07575,0.008813775145
0.07577083333,0.0088873161
0.07579166667,0.008999652229
0.0758125,0.009053079411
0.07583333333,0.009170638397
0.07585416667,0.009264061227
0.075875,0.009322746657
0.07589583333,0.009379280731
0.07591666667,0.009481679648
0.0759375,0.009551219642
0.07595833333,0.009587256238
0.07597916667,0.009672041051
0.076,0.009661919437
0.07602083333,0.009713727981
0.07604166667,0.009720202535
0.0760625,0.009713998064
0.07608333333,0.009682228789
0.07610416667,0.009661463089
0.076125,0.009677301161
0.07614583333,0.009652016684
0.07616666667,0.009654049762
0.0761875,0.009560079314
0.07620833333,0.009554729797
0.07622916667,0.009477375075
0.07625,0.009518259205
0.07627083333,0.009484281763
0.07629166667,0.009500710294
0.0763125,0.009505932219
0.07633333333,0.009479911067
0.07635416667,0.009518744424
0.076375,0.009557603858
0.07639583333,0.009655985981
0.07641666667,0.009725368582
0.0764375,0.009780411609
0.07645833333,0.009870642796
0.07647916667,0.009951659478
0.0765,0.01004278008
0.07652083333,0.0101032909
0.07654166667,0.01016026177
0.0765625,0.01022264641
0.07658333333,0.01026051771
0.07660416667,0.01030950993
0.076625,0.01032882184
0.07664583333,0.01034663618
0.07666666667,0.01039489266
0.0766875,0.01041060127
0.07670833333,0.01040975284
0.07672916667,0.01041303016
0.07675,0.01039608382
0.07677083333,0.01039015036
0.07679166667,0.01037157979
0.0768125,0.01036199927
0.07683333333,0.01031408459
0.07685416667,0.01038582996
0.076875,0.01041047741
0.07689583333,0.0105073303
0.07691666667,0.01051617414
0.0769375,0.01056404412
0.07695833333,0.01057037711
0.07697916667,0.01060281694
0.077,0.01059797313
0.07702083333,0.0106557114
0.07704166667,0.01072372776
0.0770625,0.01075748168
0.07708333333,0.01081994548
0.07710416667,0.01080987789
0.077125,0.01080879476
0.07714583333,0.01086125802
0.07716666667,0.01084014121
0.0771875,0.01094626542
0.07720833333,0.01091422047
0.07722916667,0.0108716283
0.07725,0.01084332354
0.07727083333,0.01080288924
0.07729166667,0.01076862216
0.0773125,0.01067632157
0.07733333333,0.01058176812
0.07735416667,0.01049801894
0.077375,0.0103864884
0.07739583333,0.01029942278
0.07741666667,0.0102032898
0.0774375,0.01014475897
0.07745833333,0.01015853323
0.07747916667,0.01009493135
0.0775,0.01007880736
0.07752083333,0.01004033443
0.07754166667,0.01003717352
0.0775625,0.009957098402
0.07758333333,0.009962599725
0.07760416667,0.009948199615
0.077625,0.009968770668
0.07764583333,0.009962421842
0.07766666667,0.009915587492
0.0776875,0.009929462336
0.07770833333,0.009927613661
0.07772916667,0.009979152121
0.07775,0.009998060763
0.07777083333,0.01005986426
0.07779166667,0.01009689271
0.0778125,0.01011530496
0.07783333333,0.01011011377
0.07785416667,0.01012965478
0.077875,0.01006264053
0.07789583333,0.01003874466
0.07791666667,0.009934607893
0.0779375,0.009907306172
0.07795833333,0.009848509915
0.07797916667,0.009788322262
0.078,0.009728359058
0.07802083333,0.009591699578
0.07804166667,0.009490077384
0.0780625,0.009421789087
0.07808333333,0.009401512332
0.07810416667,0.009432513267
0.078125,0.009384552017
0.07814583333,0.009378255345
0.07816666667,0.009346182458
0.0781875,0.009314676747
0.07820833333,0.00928310398
0.07822916667,0.009207684547
0.07825,0.009139605798
0.07827083333,0.009129926562
0.07829166667,0.009092508815
0.0783125,0.009043305181
0.07833333333,0.009115254506
0.07835416667,0.009040996432
0.078375,0.009109344333
0.07839583333,0.00916589424
0.07841666667,0.009236850776
0.0784375,0.009281532839
0.07845833333,0.009408504702
0.07847916667,0.009482255206
0.0785,0.009623457678
0.07852083333,0.009665475227
0.07854166667,0.009767084382
0.0785625,0.009740341455
0.07858333333,0.009760476649
0.07860416667,0.009742246009
0.078625,0.009723661467
0.07864583333,0.009676961228
0.07866666667,0.009699767455
0.0786875,0.009695858695
0.07870833333,0.009760412388
0.07872916667,0.009764011949
0.07875,0.009813760407
0.07877083333,0.009788184427
0.07879166667,0.009787847288
0.0788125,0.009840469807
0.07883333333,0.009792736731
0.07885416667,0.009841977619
0.078875,0.009774699807
0.07889583333,0.009803659283
0.07891666667,0.00977365952
0.0789375,0.009787496179
0.07895833333,0.009781288914
0.07897916667,0.009773066267
0.079,0.00980994571
0.07902083333,0.009740198962
0.07904166667,0.009641688317
0.0790625,0.009681674652
0.07908333333,0.009581455961
0.07910416667,0.009555567987
0.079125,0.009484034032
0.07914583333,0.009382827207
0.07916666667,0.009349384345
0.0791875,0.009269719943
0.07920833333,0.009164564312
0.07922916667,0.009055305272
0.07925,0.008919877931
0.07927083333,0.008853068575
0.07929166667,0.008698852733
0.0793125,0.008655434474
0.07933333333,0.008565421216
0.07935416667,0.008557713591
0.079375,0.008516314439
0.07939583333,0.008397100493
0.07941666667,0.008406813256
0.0794375,0.008313439786
0.07945833333,0.008368453942
0.07947916667,0.008272782899
0.0795,0.008186357096
0.07952083333,0.008119851351
0.07954166667,0.007997244596
0.0795625,0.007955547422
0.07958333333,0.00791657716
0.07960416667,0.007872255519
0.079625,0.007887861691
0.07964583333,0.007831510156
0.07966666667,0.007858879864
0.0796875,0.007813192904
0.07970833333,0.007785643917
0.07972916667,0.007718138397
0.07975,0.007665253244
0.07977083333,0.007611038163
0.07979166667,0.007471214514
0.0798125,0.007353013847
0.07983333333,0.007214694284
0.07985416667,0.007112916559
0.079875,0.007043606602
0.07989583333,0.006961201318
0.07991666667,0.006907788105
0.0799375,0.006776965223
0.07995833333,0.00663537439
0.07997916667,0.006541155744
0.08,0.00646308763
0.08002083333,0.006424318533
0.08004166667,0.006370055024
0.0800625,0.006345139351
0.08008333333,0.006290003192
0.08010416667,0.006316666026
0.080125,0.006336477585
0.08014583333,0.006447141059
0.08016666667,0.00643824134
0.0801875,0.006455948576
0.08020833333,0.00660802424
0.08022916667,0.006586777046
0.08025,0.006678234786
0.08027083333,0.006750047673
0.08029166667,0.006765116937
0.0803125,0.006913088728
0.08033333333,0.006894058082
0.08035416667,0.006960297003
0.080375,0.007014728617
0.08039583333,0.007084282115
0.08041666667,0.007119316608
0.0804375,0.007011084817
0.08045833333,0.006945199799
0.08047916667,0.006831557956
0.0805,0.006749030203
0.08052083333,0.006666890811
0.08054166667,0.006619381718
0.0805625,0.006528786849
0.08058333333,0.006517514586
0.08060416667,0.006426165812
0.080625,0.006431257818
0.08064583333,0.006321331952
0.08066666667,0.006407824345
0.0806875,0.006349690724
0.08070833333,0.006400854327
0.08072916667,0.006365555339
0.08075,0.006372665521
0.08077083333,0.006353665143
0.08079166667,0.006394668948
0.0808125,0.00636756327
0.08083333333,0.006449522916
0.08085416667,0.006428078283
0.080875,0.006453314796
0.08089583333,0.006402378902
0.08091666667,0.006404774729
0.0809375,0.006324197166
0.08095833333,0.006312193815
0.08097916667,0.006260462105
0.081,0.006213502027
0.08102083333,0.00614576973
0.08104166667,0.006062788889
0.0810625,0.006006654818
0.08108333333,0.005914727692
0.08110416667,0.005827953108
0.081125,0.005675876513
0.08114583333,0.005565164611
0.08116666667,0.00541502377
0.0811875,0.005362011492
0.08120833333,0.005220959894
0.08122916667,0.005176768173
0.08125,0.005036692601
0.08127083333,0.00498981867
0.08129166667,0.004913541488
0.0813125,0.004888156895
0.08133333333,0.004823239055
0.08135416667,0.00483675953
0.081375,0.004755258095
0.08139583333,0.004770989064
0.08141666667,0.004566988908
0.0814375,0.004498109687
0.08145833333,0.004383222666
0.08147916667,0.004352769814
0.0815,0.004315600265
0.08152083333,0.004298242275
0.08154166667,0.004227273166
0.0815625,0.004193793517
0.08158333333,0.004129546229
0.08160416667,0.004013147671
0.081625,0.003983184695
0.08164583333,0.003895481583
0.08166666667,0.003862606827
0.0816875,0.00378055824
0.08170833333,0.00370857399
0.08172916667,0.00358031923
0.08175,0.003547173226
0.08177083333,0.003442427376
0.08179166667,0.003368211677
0.0818125,0.003264470259
0.08183333333,0.00318119349
0.08185416667,0.003065805417
0.081875,0.00302745332
0.08189583333,0.002907315968
0.08191666667,0.002853765152
0.0819375,0.002730955835
0.08195833333,0.002690687077
0.08197916667,0.002558805747
0.082,0.002531712409
0.08202083333,0.00247872062
0.08204166667,0.002431910252
0.0820625,0.002402498852
0.08208333333,0.002322721528
0.08210416667,0.002264330862
0.082125,0.002228658646
0.08214583333,0.002179264557
0.08216666667,0.002173659857
0.0821875,0.002106856322
0.08220833333,0.001995242899
0.08222916667,0.001921499148
0.08225,0.001835336792
0.08227083333,0.001782873645
0.08229166667,0.0017236321
0.0823125,0.001684193267
0.08233333333,0.001573391492
0.08235416667,0.001644330448
0.082375,0.001476881327
0.08239583333,0.00145845185
0.08241666667,0.001445217291
0.0824375,0.001339688315
0.08245833333,0.001291584922
0.08247916667,0.001224141801
0.0825,0.001096442807
0.08252083333,0.001170715783
0.08254166667,0.00104376243
0.0825625,0.001029809471
0.08258333333,0.0008876073407
0.08260416667,0.0008166829357
0.082625,0.0006881742738
0.08264583333,0.0006215675385
0.08266666667,0.0005271005793
0.0826875,0.0004222076095
0.08270833333,0.0003128319222
0.08272916667,0.0002204093325
0.08275,0.0001558752556
0.08277083333,3.882956298e-05
0.08279166667,-5.970638085e-05
0.0828125,-0.0002215592976
0.08283333333,-0.0003187204711
0.08285416667,-0.0004654304066
0.082875,-0.0005633263499
0.08289583333,-0.0006647914415
0.08291666667,-0.0007430075202
0.0829375,-0.0008546053432
0.08295833333,-0.0009264711407
0.08297916667,-0.0010965931
0.083,-0.001155733597
0.08302083333,-0.001294775866
0.08304166667,-0.001341302763
0.0830625,-0.001488352544
0.08308333333,-0.001588474726
0.08310416667,-0.001707805903
0.083125,-0.001840478275
0.08314583333,-0.001990807708
0.08316666667,-0.002142721089
0.0831875,-0.002259161556
0.08320833333,-0.002367327688
0.08322916667,-0.002513947431
0.08325,-0.002630284522
0.08327083333,-0.002737172181
0.08329166667,-0.002782389522
0.0833125,-0.002893703291
0.08333333333,-0.002952874871
0.08335416667,-0.003088439116
0.083375,-0.003184793284
0.08339583333,-0.003261703532
0.08341666667,-0.003400163958
0.0834375,-0.003420257242
0.08345833333,-0.003558301367
0.08347916667,-0.003636252368
0.0835,-0.003774111625
0.08352083333,-0.003927087877
0.08354166667,-0.004051405005
0.0835625,-0.004191697575
0.08358333333,-0.004254375119
0.08360416667,-0.004350542091
0.083625,-0.004447143059
0.08364583333,-0.004476381466
0.08366666667,-0.004577497486
0.0836875,-0.004680770449
0.08370833333,-0.004800069612
0.08372916667,-0.004865882918
0.08375,-0.004972706549
0.08377083333,-0.005011399742
0.08379166667,-0.005100323819
0.0838125,-0.005174286664
0.08383333333,-0.005262346473
0.08385416667,-0.005325253587
0.083875,-0.005360733718
0.08389583333,-0.005418289453
0.08391666667,-0.005459511653
0.0839375,-0.005501861218
0.08395833333,-0.005493267439
0.08397916667,-0.005535601638
0.084,-0.005528577603
0.08402083333,-0.005519346334
0.08404166667,-0.005480298307
0.0840625,-0.005425239448
0.08408333333,-0.005413475446
0.08410416667,-0.005376520567
0.084125,-0.005411029328
0.08414583333,-0.005447630771
0.08416666667,-0.00544177182
0.0841875,-0.005553613417
0.08420833333,-0.005544591695
0.08422916667,-0.005605711602
0.08425,-0.005647448823
0.08427083333,-0.005683341529
0.08429166667,-0.005788692739
0.0843125,-0.005882129073
0.08433333333,-0.005960538052
0.08435416667,-0.006074224133
0.084375,-0.006129985675
0.08439583333,-0.00622971775
0.08441666667,-0.006357928272
0.0844375,-0.006399376784
0.08445833333,-0.006500767078
0.08447916667,-0.00654619094
0.0845,-0.006619796157
0.08452083333,-0.006680327933
0.08454166667,-0.006715309806
0.0845625,-0.006740212906
0.08458333333,-0.006708239671
0.08460416667,-0.006742643192
0.084625,-0.006745040417
0.08464583333,-0.006806246471
0.08466666667,-0.006834587082
0.0846875,-0.006838429719
0.08470833333,-0.006830510683
0.08472916667,-0.006780576892
0.08475,-0.006807247177
0.08477083333,-0.006808171514
0.08479166667,-0.006854964886
0.0848125,-0.006852777209
0.08483333333,-0.006931012496
0.08485416667,-0.006920803804
0.084875,-0.006975556258
0.08489583333,-0.006961922161
0.08491666667,-0.007050179411
0.0849375,-0.007099100389
0.08495833333,-0.007152829319
0.08497916667,-0.00719940383
0.085,-0.007182521746
0.08502083333,-0.007217869163
0.08504166667,-0.007219288964
0.0850625,-0.007252188865
0.08508333333,-0.00730741024
0.08510416667,-0.00736021949
0.085125,-0.007373457775
0.08514583333,-0.007454296108
0.08516666667,-0.007486362942
0.0851875,-0.00757870404
0.08520833333,-0.007623611018
0.08522916667,-0.00770690525
0.08525,-0.007735692896
0.08527083333,-0.007784218527
0.08529166667,-0.007750774268
0.0853125,-0.0077652568
0.08533333333,-0.007713373285
0.08535416667,-0.007725680713
0.085375,-0.007650799118
0.08539583333,-0.007646645419
0.08541666667,-0.007621645462
0.0854375,-0.007657759357
0.08545833333,-0.007635852322
0.08547916667,-0.007636335678
0.0855,-0.007584179286
0.08552083333,-0.007568684407
0.08554166667,-0.007543564308
0.0855625,-0.00751222996
0.08558333333,-0.007486350369
0.08560416667,-0.007489001844
0.085625,-0.007539633662
0.08564583333,-0.007565569598
0.08566666667,-0.007590763737
0.0856875,-0.007588379085
0.08570833333,-0.007584817242
0.08572916667,-0.007583207451
0.08575,-0.007620754652
0.08577083333,-0.007656651083
0.08579166667,-0.007745415904
0.0858125,-0.007788387593
0.08583333333,-0.00787353795
0.08585416667,-0.007924292237
0.085875,-0.00795705989
0.08589583333,-0.008038378321
0.08591666667,-0.008109239861
0.0859375,-0.008167626336
0.08595833333,-0.008231860586
0.08597916667,-0.008257702924
0.086,-0.008290300146
0.08602083333,-0.008280791342
0.08604166667,-0.008327051066
0.0860625,-0.00834024325
0.08608333333,-0.008369623683
0.08610416667,-0.008302787319
0.086125,-0.008318416774
0.08614583333,-0.008269420825
0.08616666667,-0.008271955885
0.0861875,-0.008264478296
0.08620833333,-0.008236318827
0.08622916667,-0.008198229596
0.08625,-0.008190406486
0.08627083333,-0.008181929588
0.08629166667,-0.008081002161
0.0863125,-0.008059670217
0.08633333333,-0.007993276231
0.08635416667,-0.007928883657
0.086375,-0.007924884558
0.08639583333,-0.00790226087
0.08641666667,-0.007931595668
0.0864375,-0.007982652634
0.08645833333,-0.008002688177
0.08647916667,-0.008026007563
0.0865,-0.007963364944
0.08652083333,-0.007959734648
0.08654166667,-0.007916973904
0.0865625,-0.007880557328
0.08658333333,-0.007861397229
0.08660416667,-0.007793702651
0.086625,-0.00777926296
0.08664583333,-0.007717083674
0.08666666667,-0.007675728295
0.0866875,-0.007693836465
0.08670833333,-0.007682168856
0.08672916667,-0.007769863121
0.08675,-0.007734512445
0.08677083333,-0.007764716633
0.08679166667,-0.007714015432
0.0868125,-0.007726164535
0.08683333333,-0.007701756433
0.08685416667,-0.007705042139
0.086875,-0.007671691012
0.08689583333,-0.007653198671
0.08691666667,-0.0076286681
0.0869375,-0.007574905176
0.08695833333,-0.007573711686
0.08697916667,-0.007495739963
0.087,-0.007486056071
0.08702083333,-0.007420050446
0.08704166667,-0.007449260913
0.0870625,-0.007399932947
0.08708333333,-0.007384531666
0.08710416667,-0.007313298993
0.087125,-0.007321326528
0.08714583333,-0.007337785326
0.08716666667,-0.007354073226
0.0871875,-0.007284202613
0.08720833333,-0.007312233094
0.08722916667,-0.007190810516
0.08725,-0.007198788226
0.08727083333,-0.007117563859
0.08729166667,-0.007014711853
0.0873125,-0.006928677205
0.08733333333,-0.0068604392
0.08735416667,-0.006775106769
0.087375,-0.006737609394
0.08739583333,-0.006739481818
0.08741666667,-0.006751256064
0.0874375,-0.006779797841
0.08745833333,-0.006708196364
0.08747916667,-0.006711725611
0.0875,-0.006690888666
0.08752083333,-0.006719332188
0.08754166667,-0.006685204804
0.0875625,-0.006688446738
0.08758333333,-0.006674771663
0.08760416667,-0.006703380495
0.087625,-0.006741198711
0.08764583333,-0.006781219505
0.08766666667,-0.006799420342
0.0876875,-0.006793723442
0.08770833333,-0.006768050604
0.08772916667,-0.006807614584
0.08775,-0.006763736252
0.08777083333,-0.00679152552
0.08779166667,-0.006746274419
0.0878125,-0.006804450415
0.08783333333,-0.006762322504
0.08785416667,-0.006778789684
0.087875,-0.006699212827
0.08789583333,-0.006668798625
0.08791666667,-0.006653487682
0.0879375,-0.006659184583
0.08795833333,-0.0066646575
0.08797916667,-0.006682954729
0.088,-0.006692758761
0.08802083333,-0.006674639415
0.08804166667,-0.006709019188
0.0880625,-0.00674585253
0.08808333333,-0.00677154772
0.08810416667,-0.006836302578
0.088125,-0.006870661397
0.08814583333,-0.006945549045
0.08816666667,-0.006956226192
0.0881875,-0.007060511969
0.08820833333,-0.007088453043
0.08822916667,-0.00714995712
0.08825,-0.007222892251
0.08827083333,-0.007250325754
0.08829166667,-0.007331869565
0.0883125,-0.007308833767
0.08833333333,-0.007392300759
0.08835416667,-0.007488629781
0.088375,-0.007507033646
0.08839583333,-0.00763656199
0.08841666667,-0.007674970664
0.0884375,-0.007736982312
0.08845833333,-0.007819578052
0.08847916667,-0.007826087996
0.0885,-0.007936619222
0.08852083333,-0.007900305092
0.08854166667,-0.00795093365
0.0885625,-0.007947570644
0.08858333333,-0.007986903191
0.08860416667,-0.00801518932
0.088625,-0.008031031117
0.08864583333,-0.008044224232
0.08866666667,-0.008059716783
0.0886875,-0.008031317964
0.08870833333,-0.008038247935
0.08872916667,-0.007995855995
0.08875,-0.007988702506
0.08877083333,-0.00795132108
0.08879166667,-0.007910146378
0.0888125,-0.007900048979
0.08883333333,-0.007859413512
0.08885416667,-0.007901667617
0.088875,-0.007851012051
0.08889583333,-0.007885489613
0.08891666667,-0.007813090459
0.0889375,-0.007829071023
0.08895833333,-0.007809402421
0.08897916667,-0.007814585231
0.089,-0.007743722759
0.08902083333,-0.007778936531
0.08904166667,-0.00770899374
0.0890625,-0.007746841293
